nodenumber,sound-pressure,spl-db,particle-velocity,sound-intensity,sil-db
1,-6.768656512460439,110.58944959889736,0.012081698745646465,-0.08177686889630505,109.12630478105216
2,-7.267341878949082,111.20691191215876,0.014742923862399946,-0.1071418680033769,110.2995921396597
3,-7.899285729625263,111.9311565512468,0.019777136111656542,-0.156225249059665,111.93751225707196
4,-8.737448587038669,112.80709275236772,0.021255013435677483,-0.18571458711104816,112.68846017110974
5,-9.476221156539395,113.51210384184195,0.0221296259301198,-0.20970522942530406,113.21609260614296
6,-10.340325903482153,114.27008462561855,0.027124419110691637,-0.28047533354719106,114.47894673166563
7,-11.337290612966173,115.06958567093127,0.02924881571487958,-0.3316023238446817,115.20617565392669
8,-12.160127121838741,115.67816238812661,0.029351238977085362,-0.35691479714482605,115.52564553517809
9,-13.18137723968539,116.3786158735907,0.03318018410163859,-0.4373605235259099,116.40839580739632
10,-14.382625220940099,117.1361633638612,0.03974679653845215,-0.5716632783455164,117.57140295547977
11,-15.703022485933616,117.89906513825086,0.04400385902096105,-0.6909935876740041,118.394740171995
12,-16.595725652441615,118.37932502271092,0.042858568831547934,-0.7112690501846546,118.52033911430232
13,-17.0931989531382,118.6358670376672,0.04103132165499801,-0.7013565443590887,118.45938853747214
14,-17.372021578252316,118.77640728950657,0.03970410015159587,-0.6897404845786145,118.38685717815949
15,-17.891809727618238,119.03248550619304,0.03833317923027835,-0.6858499490428275,118.36229110705645
16,-18.07901358504023,119.12289470877656,0.037633338205353084,-0.6803736326649918,118.3274747453197
17,-17.933362994008352,119.0526348715919,0.03912014162312971,-0.7015557001046,118.46062157599232
18,-18.45836814696668,119.30326615909458,0.0385347897348538,-0.7112893353918839,118.52046297218621
19,-18.830070891912328,119.47643918796537,0.041631648552368006,-0.7839268935882688,118.94275563715564
20,-19.144911193216103,119.62046720957638,0.04442444623134634,-0.8505020779069294,119.29675378997864
21,-19.523179052848718,119.79041083355438,0.04278178868003124,-0.8352365206013863,119.21809475539531
22,-21.065497571296877,120.45083452086399,0.049661420885342984,-1.0461425410473444,120.19590862899064
23,-22.452378934802255,121.00464735299185,0.0546282066979984,-1.2265331973121625,120.8867930730341
24,-23.76826566421369,121.49934994766892,0.055202563413786265,-1.3120691925644747,121.17956738360205
25,-25.10540273379593,121.97474393863921,0.05989770354341317,-1.503755970286903,121.77177364608923
26,-25.78510003948759,122.20677650063507,0.05820783658418805,-1.500894889405434,121.76350278819143
27,-26.259605894520067,122.36516416450122,0.06029474806786084,-1.5833163217714006,121.9956768875752
28,-27.620448498521,122.80401461346355,0.0698247505922609,-1.9285909276556161,122.85240119452082
29,-29.502419963100692,123.37655290358276,0.07235207256042031,-2.1345612298782544,123.29308617053695
30,-30.17935098166345,123.57359800418442,0.07178287972880071,-2.166360721810011,123.35730772902477
31,-31.306610160521807,123.89212099301564,0.07111765966300254,-2.226452846598288,123.47613501767256
32,-32.189024616542156,124.13355642684992,0.06843431045660964,-2.202833703903896,123.42981712673736
33,-32.19407482014503,124.13491906740678,0.06244811573270681,-2.0104593102758392,123.03295287833609
34,-31.373889268594212,123.91076727495054,0.05705902961318542,-1.7901636768575178,122.52892740871674
35,-29.72906935653009,123.44302637061752,0.05526399859417097,-1.6429472471252902,122.15623619034454
36,-28.01500406440755,122.92721388293822,0.052264940382826815,-1.4642025172509112,121.65601149155329
37,-26.296035938779827,122.37720577920106,0.04986933560121543,-1.311365841212633,121.177238668659
38,-21.935020408171116,120.80216094282707,0.037132362175441365,-0.8144991221219072,119.10890620556357
39,-18.394538596810893,119.27317805849803,0.02729439480958717,-0.5020677988015461,117.00762367856596
40,-16.25763303070562,118.2005464143034,0.017242020765706908,-0.2803144463166689,114.47645480186054
41,-13.970823316252789,116.88384009328388,0.013663814191431813,-0.19089473389460127,112.80793947921894
42,-12.31399238744052,115.78737770217948,0.012901245140653828,-0.15886583445051525,112.01030508251985
43,-9.348534224918692,113.39427053319305,0.007062811339949349,-0.06602693353566035,108.1972112796412
44,-8.092996934399707,112.14158760438595,0.010034434602118836,-0.08120864847338208,109.09602282741905
45,-7.397268527216512,111.36082777175392,0.007570820943328727,-0.056003395489277207,107.48214359105341
46,-6.249477975870832,109.89627492426688,0.005463675284147485,-0.03414511835558951,105.33328622431209
47,-6.096532420546283,109.68105783999256,0.005250056143665915,-0.032007137489547435,105.05246835403648
48,-5.8769248490571036,109.36240283125002,0.007867374859358733,-0.046235970807812485,106.6497998085849
49,-6.150765997997952,109.75798418430357,0.012267889477527659,-0.07545691746557398,108.77699059610859
50,-6.288194307271624,109.94991914833996,0.01977823694920744,-0.12436939699187552,110.94713528645659
51,-4.832171287765959,107.66224649638711,0.006547200023874211,-0.03163719197062557,105.00197929763029
52,-4.145221836486599,106.33035563262008,0.005665495142579857,-0.023484734179530783,103.70785648827707
53,-3.9907457433873783,106.00048126850277,0.008935847549253141,-0.03566069557074051,105.52189809943886
54,-3.719579834680189,105.38927777798334,0.01328779947965586,-0.04942503099180185,106.93946950308712
55,-2.0452628247003304,100.1943825779182,0.007339246392803035,-0.015010687808516044,101.76400592616312
56,-0.6681486935412977,90.47686255773752,0.0038461916630012642,-0.002569827934743725,94.09904045707566
57,-0.921064136986388,93.26519754124264,0.00929755294316692,-0.00856364257768329,99.32658532772429
58,-1.386846661218442,96.8199689928566,0.008433277908295622,-0.01169566331024703,100.68024857509948
59,-1.2974761553341525,96.2413877916666,0.0057640017527091905,-0.007478654833444437,98.73823489448911
60,-1.6842246617889032,98.50740053388193,0.004410592454689778,-0.007428428585288578,98.70896952533585
61,-3.0494334261165936,103.66378321615927,0.00991446287935105,-0.03023349450628525,104.80488347544524
62,-5.3486823806742905,108.54433626815388,0.01615083733992151,-0.0863856991131746,109.36441852313439
63,-8.797805320224143,112.8668870383828,0.022913641200432263,-0.2015897544588701,113.04468455873452
64,-12.395109861026867,115.84440769439831,0.027309627280203586,-0.3385058304018198,115.2956615334474
65,-16.220697131793713,118.18079039369916,0.03289916911859336,-0.5336474581603636,117.27254445160109
66,-20.991665492329048,120.42033802981508,0.04233757914653325,-0.8887362991990319,119.48772918685086
67,-26.900879234308377,122.57472958295307,0.058479067808491436,-1.5731383408511588,121.967669159014
68,-33.04869159621012,124.36248549398918,0.07345859919445273,-2.4277105898670777,123.85196912751155
69,-36.0757250001916,125.1237014408217,0.07502222190618113,-2.7064810463907403,124.32404990053816
70,-36.375713158326114,125.19563041811286,0.08025817643670052,-2.919448404671745,124.65300804381157
71,-36.331113222142456,125.18497419251669,0.08082431177268745,-2.9364372221152486,124.67820720527055
72,-36.381616076570936,125.19703981829477,0.07734313548166938,-2.8138682612523067,124.49303760920172
73,-37.32810175075429,125.4201181921664,0.08030200943977661,-2.9975215791580125,124.7676231826814
74,-37.49388303888554,125.45860849239504,0.08156583621536129,-3.0582199230276506,124.85468713229035
75,-35.031614383653505,124.86860311954702,0.07554174399598422,-2.6463492455359923,124.22647158596823
76,-31.618419578662724,123.97820325226887,0.06913523628520579,-2.1859469085356245,123.39639609759148
77,-28.906905235489827,123.19943206119669,0.06198318129014524,-1.7917419477484149,122.53275461386988
78,-26.1637596249202,122.33340309615568,0.0572870789890203,-1.498845364282544,121.75756829043749
79,-23.462306353540047,121.38681411049772,0.051990392289155814,-1.2198145113288996,120.86293795567491
80,-21.38573184906272,120.58188242671447,0.04662447158915484,-0.9970984470099086,119.98738039838655
81,-20.31154957228864,120.13426122839905,0.04539059256217115,-0.9219532709420952,119.64708909463295
82,-19.148181403594208,119.62195075057974,0.044243462520455516,-0.8471818462648038,119.27976640971605
83,-17.770412970086912,118.97335049825232,0.04470815393824523,-0.7944823586128352,119.00084258192663
84,-17.582089677962358,118.88080990383536,0.04352421259426365,-0.765246608995042,118.83801413802854
85,-17.86964029810042,119.02171629841988,0.04435119716652025,-0.7925399401558475,118.99021157769552
86,-17.957779151955034,119.06445261119812,0.044569032336994496,-0.8003608397240897,119.0328583120381
87,-8.139249418949477,112.19108723060215,0.027195631138624776,-0.221352024943016,113.45083499287784
88,-18.17161905343528,119.16727256204727,0.043105950392885006,-0.7833049094757851,118.93930848554048
89,-18.318532050063368,119.23721346014702,0.044528576350955966,-0.8156981530286808,119.11529478942741
90,-5.7954106510442225,109.24108437904164,0.01941076079356208,-0.11249332984788124,110.51126772259485
91,-17.886390506086173,119.02985425251318,0.042007673148532376,-0.7513656461866806,118.75851334442258
92,-17.018332493913473,118.59774017446516,0.04133463543769267,-0.7034465693933526,118.47231115987015
93,-16.537929017737042,118.34902255806203,0.040562628129634966,-0.6708218647807668,118.26607209567442
94,-4.1969438602100135,106.43806328622742,0.018789470941044332,-0.07885835470261045,108.9684771172996
95,-16.34227941854624,118.24565272165823,0.039301963066805,-0.6422836621351119,118.07726874941378
96,-16.055797013556006,118.09203746508601,0.042393167553370865,-0.6806560929985911,118.32927736525794
97,-2.8106011772761117,102.95538456346105,0.017203171351923174,-0.04835125365459796,106.84407738981909
98,-15.553631267001036,117.81603606344744,0.04008099250842179,-0.6234049782914235,117.94770266076628
99,-14.444190557129334,117.17326427246121,0.036159245497515265,-0.5222910323681312,117.17912569152193
100,-12.888585642474935,116.18350532072365,0.03305854950548337,-0.4260779465174199,116.29489056017741
101,-0.3678837017068872,85.29361104227988,0.0140385356409638,-0.005164548458141832,97.13032356695948
102,-11.30670286262466,115.04611967005779,0.029654628624143694,-0.33529607435467673,115.25428468740236
103,-9.669261585251661,113.68726627635284,0.02965540582255244,-0.2867458763150547,114.5749718104063
104,3.586987807953846,105.0739980972547,0.002237160219294765,0.008024666431049675,99.0442698871986
105,7.243016130989418,111.17778913518282,0.012388529882400691,0.08973032177747263,109.52939225155752
106,9.45646341216343,113.49397501823822,0.012582143102747523,0.1189825758977364,110.75483366892384
107,10.848724909476003,114.68697402585792,0.014888477728788985,0.1615209992004918,112.08228992574499
108,13.08505980319751,116.31491432381472,0.01957389464996595,0.2561255820762923,114.08452958396991
109,15.211930470191875,117.62308672064222,0.027894959643049333,0.4243361865588748,116.27710069128672
110,16.988536724617006,118.58251955369278,0.0261597543489529,0.4444159474641458,116.47789634812963
111,17.226230394822775,118.7032051158444,0.033509627383864427,0.5772445617591111,117.61359850105222
112,14.860891425109005,117.42029731073556,0.030944453318113574,0.4598621609698398,116.62627675810015
113,11.97896420638426,115.54778543125963,0.022838180221469884,0.27357774341194074,114.37080762980284
114,8.900810862411161,112.9679915387865,0.01723415648058335,0.15339796720687002,111.85819604484614
115,-11.902701737184547,115.49231110679656,0.035606397673006995,-0.4238123314373841,116.27173588989443
116,4.881994487936026,107.75134578146006,0.004875005680958111,0.023799750863094316,103.76572410865349
117,-10.111805691529296,114.07597439902416,0.029333825168578187,-0.2966179402939543,114.72197414848269
118,0.02411937527358532,61.626721181996174,0.011765067732710577,0.000283766083764396,84.52960486561233
119,-5.395491657633102,108.62002059432112,0.020978659986099046,-0.11319018494331876,110.53808769522188
120,-8.034212824321003,112.07826672476044,0.027353573316133858,-0.21976442952748745,113.41957400052651
121,-11.381434445065679,115.10334011229023,0.028975797337920994,-0.3297861378950564,115.1823239672327
122,-5.975480270994012,109.50685642359305,0.02025369922421305,-0.12102558012893183,110.82877173082727
123,-16.555319212959148,118.35815126790243,0.0431712742931154,-0.7147142267527428,118.54132427041306
124,-22.535999809770146,121.0369366929558,0.056680011615242165,-1.2773407309788671,121.06306760885694
125,-3.0989951964147617,103.8038181479876,0.010221560947229593,-0.03167656827532523,105.0073812557472
126,-30.293093682761537,123.60627264531787,0.07469810254428921,-2.262836618298681,123.54653198085155
127,1.5796005930169486,97.95034584888592,0.0011535963690221251,0.0018222215086095477,92.60601168531365
128,-38.934528744168354,125.78609853571051,0.0939269201675188,-3.6570003731134655,125.63125004647893
129,6.33212285421905,110.0103867335584,0.006902694801567577,0.04370871150870509,106.40568004089577
130,-45.971344577876145,127.22914421185159,0.1089748133738908,-5.009718695920881,126.99813340190755
131,-47.83416252063762,127.57416358167835,0.11305012285339446,-5.407657949547319,127.33009213384364
132,-43.79128069790022,126.807153017463,0.10369924738381542,-4.541122850345657,126.57163250966269
133,10.119519446845516,114.08259787328105,0.01354414622130662,0.13706025107743153,111.36911523055893
134,-38.01817749332986,125.5792259651041,0.08594425940987094,-3.2674441087772585,125.14208167497502
135,-33.733750906860216,124.54069276142808,0.07908313072186958,-2.667770632706213,124.26148487451364
136,-30.04201471267152,123.53398117616976,0.07684448407985656,-2.308563121314702,123.63341753638686
137,13.994477978281793,116.8985341479373,0.019510397120541256,0.27303782285094713,114.36222812306951
138,-25.37919584965857,122.06895723024027,0.06802130854435973,-1.7263261114973596,122.37122839493787
139,-21.10217348614242,120.46594386985409,0.06079485618545277,-1.282903602290503,121.08194024600857
140,18.051232217927467,119.10953715025849,0.024410265896392502,0.4406353781971363,116.44079363307208
141,-17.634057542964,118.9064451594442,0.05423310527817194,-0.9563496992089086,119.80616725609259
142,-14.671246434096249,117.30874032739628,0.04937476132795382,-0.7243892910670957,118.59972021342676
143,-13.54739485803293,116.61651586907357,0.04624919211966017,-0.6265560675100612,117.96959940008104
144,21.736149655247573,120.72305239821523,0.033313495481593236,0.7241071233273244,118.59802819827664
145,-13.494494939383006,116.58253278247601,0.04205171328015922,-0.5674666320514936,117.53940329403551
146,-13.398737856041407,116.52067789286293,0.04516387763703733,-0.6051389570209941,117.81855112401352
147,-13.006619847059483,116.26268902717169,0.04402018534199215,-0.5725538163403919,117.57816313791348
148,25.59223454716266,122.14156423286137,0.03865913905883645,0.9893737541851196,119.95360385345164
149,-12.820607554749587,116.13757221506144,0.04258362130616433,-0.5459478970264059,117.3715119744164
150,-12.699242267597587,116.05495625573148,0.037572556263228314,-0.4771429945996773,116.78648551910213
151,-13.388402141572444,116.513975058617,0.046578843226313886,-0.6236162844031479,117.9491744733478
152,29.191709702281518,123.28459071722564,0.053053767088783836,1.5487301674682352,121.899757579867
153,-14.283764180858268,117.076253517811,0.05245145292917641,-0.7492041845837436,118.74600194406021
154,-10.852934790033032,114.69034395782377,0.040313845728860535,-0.4375235388307752,116.41001423093914
155,-13.646444743368194,116.679790507004,0.05559005100695913,-0.7586065593474871,118.8001659354223
156,31.46660704187525,123.93639841976578,0.05896598511452567,1.8554594824358444,122.6845147512422
157,-13.406392231307109,116.52563851498242,0.0526553969411907,-0.7059189044887711,118.48754812445652
158,-14.991682160907658,117.496407409746,0.05849975578661315,-0.8770097452436229,119.43004419229229
159,31.85364484184538,124.04258275680962,0.05419380575477817,1.72627024114066,122.37108783875846
160,-8.611445831891615,112.68092156898001,0.02898447647652347,-0.24959824914331855,113.97241534575842
161,-16.002365087741055,118.06308357564815,0.058603351485544415,-0.9377922258368936,119.72106628178759
162,-15.922755170278833,118.01976443480456,0.05397015178272113,-0.8593535133390563,119.34171856857334
163,31.81134503129579,124.03104072905023,0.054802778177418084,1.7433500852754138,122.41384607326034
164,-5.6306105246185325,108.99050984199758,0.025653435332003482,-0.14444450297299974,111.59701018842595
165,-15.75944507656095,117.93021850660524,0.05457020142171132,-0.8599960921223279,119.34496477785936
166,-15.0324476374808,117.5199940815677,0.052349794823499,-0.7869455495171122,118.95944683614022
167,31.68956941914803,123.99772685212407,0.05111072698508679,1.6196769308570302,122.09428396556008
168,-13.763478338179992,116.75396416031721,0.05161069086148018,-0.7103426256904866,118.51467876261135
169,-1.8533708121831296,99.3386464717353,0.026366501682957733,-0.048866904638571226,106.89014830516552
170,30.98146295093466,123.8014385143302,0.05195304956134805,1.6095814801729766,122.0671296641699
171,-12.159736386645818,115.67788328435923,0.0503491629990549,-0.6122325493567691,117.8691641515066
172,2.116975945958984,100.49371855465107,0.020794888348916633,0.044022278433559235,106.43672516307173
173,31.39376636011002,123.91626852323758,0.05526536905085777,1.7349880837878842,122.39296496324044
174,30.949218447072784,123.79239381399869,0.054802429511426,1.6960923623794313,122.29449498498242
175,6.193858730810463,109.81862600210138,0.010831162785621018,0.0670866921845481,108.26636378827524
176,-12.835091457425733,116.147379439061,0.04622550619939148,-0.5933085997349898,117.73280643281635
177,26.361147952527965,122.39868645902405,0.048952227078700616,1.290436900627373,121.10736773405792
178,10.587656721821986,114.4753971257152,0.00100763519242264,0.010668495518197957,100.28103179104572
179,18.966370884343632,119.53908486402568,0.028208952528416376,0.5350214559127879,117.28371198839326
180,-12.250936555545195,115.74278590213171,0.05736056462808393,-0.7027206380489059,118.46782708424284
181,15.579123593022814,117.83026054058891,0.01453955977069654,0.2265135986558239,113.55094279831877
182,10.464447907084832,114.37372649419159,0.003240796929276257,0.033913150643851885,105.30368139046068
183,21.572904713262687,120.6575725910053,0.02913303452044147,0.6284841777176764,117.9829434866255
184,-11.391137029524545,115.11074161132669,0.0510760733957909,-0.5818145509815071,117.64784578602259
185,0.8272086869401392,92.33170181715191,0.01675559868590426,0.013860376787862784,101.41775036528706
186,-9.64310316988849,113.66373635127307,0.03468192282156224,-0.3344413598984348,115.24319980683623
187,28.136491100900454,122.96479879977171,0.039144040991004665,1.101375960996685,120.4193559319082
188,-20.176780883353786,120.07643763978672,0.05755551900097089,-1.161285095510295,120.6493885213078
189,-8.549380169482902,112.61809267664951,0.03708914472377956,-0.31708919840456234,115.01181448103424
190,-25.71780190190475,122.18407702132238,0.08891331540979762,-2.2866550321507506,123.59200651299514
191,-29.766608627338428,123.45398723425177,0.0962928120518427,-2.8663104499730587,124.57323227027271
192,33.81122616949142,124.56061850291591,0.052369044165516236,1.7706615965603547,122.48135568084757
193,-32.48760078183841,124.21375288199043,0.11041443493314773,-3.5871000826603763,125.54743493971972
194,-5.072020340579911,108.08301981772664,0.040130527758662986,-0.20354285307014544,113.08655857751086
195,-30.980820352546292,123.8012583550983,0.11068741591424214,-3.4291869477267087,125.35191162033277
196,38.22352397427312,125.62601456372208,0.05814126411564757,2.2223640028190004,123.46815193879644
197,-26.58437436290842,122.47192896826392,0.08662128084154119,-2.302772557686158,123.62251045293915
