nodenumber,sound-pressure,spl-db,particle-velocity,sound-intensity,sil-db
1,-3.40147651245934,104.61274961590937,0.005154298745765118,-0.01753222612191868,102.43837063331922
2,-4.900161878947984,107.78360863411751,0.008914023862416798,-0.04368015991864746,106.40284219707188
3,-5.633655729616294,108.99520616479099,0.01440603611172264,-0.0811586478818655,109.09334802994918
4,-6.448388587028602,110.16842409974943,0.015670313435691696,-0.10104827031387532,110.04528883911999
5,-7.116851156533812,111.0251577464597,0.01782662593018358,-0.12686944336832268,111.03357034431109
6,-8.004385903477669,112.04596045589594,0.02181431911071741,-0.17461022838378992,112.42069680380604
7,-8.993540612966171,113.0580140903644,0.02372511571491032,-0.21337279172936788,113.2913903947856
8,-9.777317121828672,113.78379411697222,0.02407173897711345,-0.23535702565312205,113.71727166980163
9,-10.837637239674224,114.6780922886656,0.02692408410166536,-0.2917934565043292,114.65075548572081
10,-12.062315220944585,115.60801355819044,0.03248359653849775,-0.3918273809573442,115.93094781284006
11,-13.367082485943685,116.50013264703793,0.03518425902097988,-0.4703108925402462,116.72385037252016
12,-14.1425956524472,116.98998258156931,0.03611416883154561,-0.5107480871087611,117.08206748755948
13,-14.616638953128133,117.27635047770477,0.03804062165505684,-0.5560260322845133,117.45095125058414
14,-15.059521578252316,117.53562358878773,0.039246300151660314,-0.5910305040004955,117.71609896071135
15,-15.73555972761824,117.91704400188948,0.03943177923025587,-0.6204811172439475,117.92728569393913
16,-16.14151358504023,118.13828520597865,0.03894563820529129,-0.6286415481687712,117.98403081015208
17,-16.316172994018412,118.23176611320976,0.03896764162311683,-0.6358027818916868,118.03322423795122
18,-16.841188146965578,118.50685464171306,0.03713098973480555,-0.6253299842069079,117.96109253346272
19,-17.041010891916812,118.60930716735196,0.0368403485524027,-0.6277967809435062,117.97819084505062
20,-17.47304119321052,118.82677010221457,0.03954154623136219,-0.6909110661438297,118.3942214872198
21,-18.0075490528543,119.08849221623072,0.03887548868004842,-0.7000522693596539,118.45130467795671
22,-19.534257571285707,119.79533828396559,0.04523642088537372,-0.8836598971779784,119.4628514600908
23,-20.975818934792187,120.41377859656194,0.05179000669795642,-1.0863378031280084,120.35964892676904
24,-22.408895664208107,120.98780917747676,0.05315786341373041,-1.19120901497051,120.75987971460987
25,-23.878832733797026,121.53966195491144,0.05791400354337384,-1.382918803556752,121.4079668177059
26,-25.011660039483104,121.94225042837714,0.05808573658430305,-1.4528206965895545,121.62212018092356
27,-26.056475894525647,122.29771363807707,0.06185114806777393,-1.6116229486766878,122.07263442889021
28,-27.573578498515417,122.78926273658877,0.07070975059224338,-1.9497208585656696,122.8997243789462
29,-29.377419963100692,123.33967312139387,0.07250467256039883,-2.1300002150939394,123.28379647295124
30,-29.92935098166345,123.50134607194498,0.07257627972882119,-2.1721609489472757,123.36892001694879
31,-31.337860160521807,123.90078685202326,0.07377265966306368,-2.3118772921908577,123.63964779255994
32,-32.54059461654106,124.22790977805077,0.07057051045660499,-2.2964063726507558,123.61048743387717
33,-32.8581348201551,124.31225823138857,0.06290581573279043,-2.066967774319861,123.15333705681878
34,-32.202009268599795,124.13705950016576,0.05715052961318179,-1.8403618843090668,122.6490323002328
35,-30.28375935653457,123.60359581666052,0.055630198594201374,-1.6846915471830224,122.26520396828123
36,-28.296244064418715,123.01397594183443,0.051654540382855885,-1.4616294817086626,121.64837294343292
37,-26.725725938784308,122.51799029842569,0.05109003560124848,-1.3654182896817,121.35265715898579
38,-22.0209604081756,120.83612520856796,0.037620662175527286,-0.8284431122966356,119.1826269155572
39,-18.113288596810893,119.13934622142632,0.027446994809622538,-0.4971553381018636,116.96492106922295
40,-16.07013303070562,118.09978952523836,0.017486120765795476,-0.2810042868973173,114.48712945391372
41,-13.533323316252789,116.60748923476105,0.013907914191463531,-0.1882202994077765,112.7466645992743
42,-11.696802387436035,115.34074314165537,0.013389545140569227,-0.1566148635668927,111.94832976487943
43,-8.254784224918692,112.31351459774716,0.005964111340006184,-0.04923245220514174,106.92251467961228
44,-6.717996934399707,110.52419611323224,0.00878323460210595,-0.0590057431310612,107.70894284332684
45,-6.241018527216512,109.88450952348771,0.005282020943297994,-0.03296519056826841,105.1805559069729
46,-4.835417975875316,107.6680805000665,0.0019541752840837034,-0.009449254296669592,99.75397536803447
47,-4.229342420541799,106.50485705440924,0.0005177438563350734,-0.0021897160545728237,93.40387802544608
48,-3.7753648490615888,105.51857864590572,0.001336574859465145,-0.005046057742564141,97.02952215886965
49,-3.1976359980035336,104.07598057538841,0.00552358947754783,-0.017662428551600474,102.47050418043683
50,-2.131954307260457,100.55495793698842,0.01452923694915853,-0.03097566929496632,104.91020699001943
51,-0.3556112877558917,84.9989108431616,0.0014203000239376704,-0.0005050747205121988,87.03355632189243
52,0.40946816351788573,86.22380289993124,0.0007215951425223466,0.0002954702378120524,84.7051374171488
53,0.368634256607038,85.31131390807731,0.0031985475494025195,0.0011790941980962606,90.71548502363304
54,0.5226001653209096,88.34279094226744,0.011182099479583485,0.005843767036665186,97.66692894341752
55,2.4312971752951853,101.69616099705476,0.0029447463927567696,0.00715955358667022,98.54885943971277
56,3.980291306463186,105.97769724759027,0.0007315083370258435,0.0029116162744693076,94.64134138202276
57,3.625805863004644,105.1674910246407,0.006825652943120986,0.02474849246000297,103.93548749279995
58,3.2381533387815584,104.1853482944617,0.0053204779083557705,0.017228523302855757,102.36248054644491
59,3.936903844674816,105.8824962400962,2.6701752631197447e-05,0.00010512223259331714,80.21694575890189
60,4.089215338201028,106.21219970905688,0.0023033075453327,0.00941872054296864,99.7399191140563
61,2.6849365738744377,102.55808070350865,0.004634962879322303,0.012444581353242822,100.94980291138691
62,0.4716276193212252,87.45138469065104,0.009528537340031562,0.004493921381292485,96.52625470404092
63,-2.954055320224142,103.38777256732989,0.016108241200356588,-0.047584635617367116,106.77466748020227
64,-6.6607298610324515,110.44983649370536,0.02105352728011667,-0.1402318578347344,111.46846687739901
65,-10.455077131788132,114.36594490972992,0.02694816911866837,-0.2817451866961488,114.49856505342251
66,-15.319785492334633,117.68445377366044,0.03721067914653986,-0.5700596225490802,117.55920280917931
67,-21.51024923431396,120.63230893645957,0.0547559678085463,-1.1778145146279029,120.71076901982259
68,-28.025251596205635,122.9303904898328,0.07101719919444349,-1.9902748750821306,122.98913060574276
69,-31.231975000191603,123.87138905378636,0.07166522190624391,-2.2382464189589935,123.49907898324072
70,-31.524153158330588,123.95226866340458,0.0762603764366645,-2.404043786701357,123.8094237354268
71,-31.534243222136865,123.95504834656944,0.07639921177269571,-2.4091913260197284,123.81871290880515
72,-31.530056076560868,123.95389494964505,0.07276553548160791,-2.2943014141760765,123.60650472813023
73,-32.023421750753194,124.08875478833885,0.07456470943969863,-2.387817138109836,123.78001064940308
74,-31.697013038879962,123.99976685672094,0.07445523621532857,-2.3600085931301567,123.72913584301556
75,-29.109744383647925,123.26016792393452,0.06797334399595911,-1.9786866686241391,122.96377027727785
76,-25.634039578668308,122.15574109724515,0.062329836285130114,-1.5977654902649414,122.03513036706578
77,-23.000655235489827,121.21420425151072,0.05624588129012409,-1.2936921239704322,121.11830934161377
78,-20.312199624924688,120.13453920793407,0.05090887898904839,-1.0340713127066852,120.14550490060692
79,-17.212306353540043,118.69618143226738,0.04411689228913929,-0.7593534654467939,118.80443979268215
80,-14.924801849061625,117.45757156424885,0.03890357158917368,-0.5806280971892006,117.6389804795962
81,-14.030299572288639,116.92073896873151,0.039378592562286485,-0.5524934503839767,117.42327133978942
82,-13.288811403603175,116.44912284486617,0.039055462520479985,-0.5190006757151507,117.15167923280384
83,-11.770412970086909,115.39523409717206,0.039092953938279607,-0.4601402120741364,116.62890188315413
84,-11.12895967796794,114.9084914646375,0.03638311259425109,-0.404906193020388,116.0735441933204
85,-11.549330298104904,115.2305361240629,0.037393197166522896,-0.4318663849783334,116.35349401346491
86,-11.785909151949456,115.40666186965609,0.037153332336913536,-0.4378857996150489,116.41360861499906
87,-2.553319418948377,102.12150305111179,0.024906831138594043,-0.06359509561064028,108.03423624589236
88,-11.835679053430797,115.44326368554633,0.0344694503928622,-0.40796935199807105,116.10627538682866
89,-12.091962050064465,115.62933559670785,0.03592267635093549,-0.43437563917226013,116.378654609875
90,0.6108393489557784,89.69794019874114,0.011109960793589837,0.006786401218080639,98.31639531944458
91,-12.292640506086173,115.7723037071019,0.037887773148554516,-0.4657407748913253,116.68144261413755
92,-11.526142493908992,115.21307977308793,0.036360235437769006,-0.41909325476780496,116.22310670996825
93,-10.678559017746009,114.54965313146349,0.032719628129598284,-0.3493984800206177,115.43321011350706
94,3.123366139785503,103.87185804329286,0.005270270941082345,0.016460985804872073,102.16455840402142
95,-10.475089418541756,114.38255486519304,0.032221863066695285,-0.33752689685564113,115.28308386620522
96,-10.165167013547032,114.12169045641504,0.030369267553282956,-0.3087086767582161,114.89548836204665
97,5.033148822723888,108.01619552729662,0.008200471351983651,0.04127419273101749,106.15678587788422
98,-9.67082126699097,113.6886672241762,0.02820959250846045,-0.2728099271639684,114.3586016962847
99,-8.7332505571394,112.80291849181829,0.027278645497517573,-0.2382312459892035,113.76998722179285
100,-7.279215642469352,111.22109179248841,0.0272602495054457,-0.19843323461765774,112.97614411781272
101,7.788366298293113,111.80832746341947,0.005157835641057318,0.04017111327894587,106.03913867683958
102,-5.525452862624661,108.82675765306342,0.026602928624129163,-0.14699322812039406,111.67297327553015
103,-3.4661315852572443,104.77630100422856,0.02611540582250882,-0.09051943298320876,109.5674182485588
104,12.25885780795943,115.74840023945663,0.014169560219329469,0.1737026239300784,112.39806378894691
105,16.469576130999485,118.31304852872287,0.0232222298823217,0.3824602829784685,115.82586342028532
106,19.14396341216343,119.6200371984198,0.023782043102698932,0.4552825630245621,116.58281017478785
107,21.129974909476005,120.47737971382193,0.02700397772883889,0.5705933718664146,117.56326722493576
108,24.350679803188537,121.70962188697573,0.033520394649997336,0.8162443969985995,119.11820213136494
109,27.071300470197453,122.62958247103676,0.04138365964308832,1.1203094847544284,120.49338012808019
110,28.918226724621487,123.202833253829,0.03754275434897636,1.0856698821304678,120.35697790111207
111,29.546540394818287,123.38953281956016,0.047578227383951344,1.4057720173137682,121.47914894189618
112,27.673391425109006,122.82064780655064,0.0448299533180716,1.2405968457403596,120.93630672621872
113,25.08052420637977,121.9661322749968,0.035563980221411384,0.8919632668183198,119.50346969458415
114,22.361750862415647,120.969516178447,0.030600856480475613,0.6842887287929329,118.352393866084
115,-4.63708173717896,107.3042951109247,0.03234109767299742,-0.14996831337977728,111.7599950720223
116,18.897624487944995,119.50754438540513,0.017204105681003057,0.3251167288105169,115.12039316599103
117,-2.182115691524814,100.75695553292982,0.01813382516860429,-0.039570104447779024,105.97367196615136
118,14.477239375279169,117.19311519357643,4.636773275024098e-05,0.0006712767663142102,88.2690161599745
119,9.260758342366898,113.3123311171633,0.007917159986050137,0.07331890538866721,108.65215972558451
120,0.9814071756700288,93.81638466771906,0.010935073316090891,0.010731759418889458,100.30670928235844
121,2.157635554933222,100.65896188858031,0.014663097338029731,0.031637620161979615,105.00203807651434
122,4.227639729011571,106.50135949685087,0.013417799224328064,0.056725621076669966,107.53779259580227
123,-4.164689212950179,106.37105204725815,0.03029287429313854,-0.12616040679788987,111.00923080683829
124,-10.293809809765662,114.23092288446651,0.045907311615167146,-0.4725611346441767,116.74458000614905
125,7.9713148035807535,112.00999929970017,0.006315360947269255,0.05034173020892319,107.01928137856659
126,-18.08216368276044,119.12440801134485,0.0641085025442294,-1.1592204364614198,120.64166028919459
127,13.485850593016947,116.5769669648694,0.009863203631027773,0.1330136905365428,111.23896343361672
128,-26.137658744162763,122.3247337561796,0.08303212016761563,-2.170265221745452,123.36512810946259
129,19.33212285421905,119.70499101442249,0.019658994801602603,0.3800501026950352,115.79840854221108
130,-32.58852457787725,124.24069405748915,0.09719501337389147,-3.1674420821821703,125.00708682397259
131,-34.52947252063313,124.7431989672756,0.1002327228534341,-3.4609830494358893,125.39199472291965
132,-31.51784069791029,123.95052920906994,0.09320124738383127,-2.9375020678901222,124.67978181006755
133,24.064829446855587,121.60705584824952,0.028619746221409063,0.6887293116304986,118.38048566517323
134,-26.854117493334346,122.55961778131365,0.0787726594098217,-2.115370251053761,123.25386392475409
135,-22.702500906860227,121.10087412064709,0.07224723072192774,-1.640192820982704,122.1489490668568
136,-18.75295471266145,119.44079418325651,0.06820798407983375,-1.2791012364910554,121.06904918762852
137,29.04915797828289,123.24207105485478,0.03589839712066123,1.0428182091252238,120.1820860597688
138,-14.004195849658572,116.90456360220388,0.05691290854440467,-0.7970195176295498,119.01468956647085
139,-9.94592348614242,113.93230236446765,0.048587856185406515,-0.4832510999757448,116.84172851242448
140,34.01217221793195,124.61208747523413,0.04153066589640275,1.4125481607938437,121.50003264003294
141,-6.829367542959517,110.66700981094891,0.039889805278164665,-0.2724221414616729,114.35242402520636
142,-4.0774864341074135,106.18725058285706,0.032590161327959784,-0.13288594070012805,111.2347903512375
143,-3.117714858031832,103.85612794042801,0.028640492119734517,-0.0892928878230399,109.50816868718158
144,38.103339655237505,125.59866092846252,0.04924359548164148,1.876345444482104,122.73312797167456
145,-4.35387493937742,106.75691909107302,0.04397431328015955,-0.19145866056681832,112.82075016289915
146,-3.4221778560458915,104.66545162210241,0.028653877637111688,-0.0980586655395722,109.91485978725134
147,-3.3972398470505136,104.60192427447964,0.029768485342003718,-0.10113068459019416,110.04882947147064
148,41.88129454715818,126.41980203109631,0.052331039058856284,2.1916916607827988,123.40779455177412
149,-3.2659175547451014,104.25950442975358,0.03150572130601858,-0.10289508828823286,110.12394644147963
150,-2.5820522675930992,102.21870067257484,0.00989315626327425,-0.025544646563240143,104.07299898143887
151,-4.068092141576926,106.16721570784674,0.037179443226307285,-0.15124940081714613,111.7969366284634
152,45.91826970227703,127.21911037795459,0.06797686708864603,3.121380116492288,124.94346659547402
153,-5.44001418085827,108.69140072281807,0.042929952929171115,-0.23353955271826896,113.68360444099544
154,0.25644520997593645,82.15929191646788,0.031952045728758094,0.008193949076072092,99.13493260562987
155,-4.685504743363708,107.39452772417485,0.04069755100692874,-0.19068856828625105,112.80324658022334
156,49.34942704187415,127.84504238225522,0.07410268511455342,3.656925052667628,125.63116059723764
157,-3.875142231307109,105.7451530320223,0.03355139694122045,-0.1300164352062715,111.13998254370213
158,-5.085432160907659,108.10595739166952,0.038632855786659086,-0.19646476728518367,112.9328467814366
159,50.41614484184538,128.0307927572715,0.06884220575483369,3.470758616567817,125.40424410520176
160,3.9198141680972185,105.84470965323679,0.024650976476493724,0.09662724684999137,109.850996055883
161,-5.830495087750022,109.29350876251421,0.03827865148548426,-0.2231834894518111,113.4866206345017
162,-5.594625170269865,108.9348199846636,0.03932175178260877,-0.21999046226208696,113.42403852291584
163,51.07696503130136,128.14390176249572,0.07045827817739791,3.598795010632658,125.56157109701948
164,8.22875947538705,112.28608745049964,0.019366835332050414,0.15936502974687056,112.02393028138107
165,-5.353195076560951,108.55166148392492,0.04443840142181443,-0.23788743170149615,113.76371497577937
166,-4.579317637486382,107.19541546185258,0.045025594823584925,-0.20618650051395804,113.1426022765838
167,51.83018941913906,128.2710560071099,0.06514872698505769,3.3766708600513167,125.28488729978037
168,-3.325978338179993,104.41778841409857,0.04419489086149042,-0.1469912496635461,111.67291482122684
169,13.029449187815773,116.27792121793532,0.013762701682992429,0.17932042226561645,112.53629752876171
170,51.58302295094472,128.2295358820937,0.06623524956131632,3.4166143982829316,125.33595966756715
171,-1.6753663866547868,98.46159604315876,0.04076666299903309,-0.06829909688466346,108.34414961066594
172,17.976355945967953,119.07343326408208,0.005536088349003876,0.09951869471001973,109.97904671165541
173,52.557826360105544,128.39214800187509,0.0723551690508657,3.8028304112314815,125.80106958304405
174,50.746098447067205,128.08745323988558,0.0739980295114151,3.7551112904752544,125.74622812744465
175,23.217298730814942,121.29563387406108,0.0056483372143247826,0.1311391324373576,111.17732306226068
176,-1.7491514574212488,98.83594841207916,0.051260906199445344,-0.08966308878749375,109.52613695719359
177,44.947087952532456,127.03343128191456,0.06503502707874986,2.9231350821038995,124.65848885168181
178,28.72046672183205,123.14322994928808,0.017395535192463285,0.4996078896036002,116.98629287957209
179,37.47418088433915,125.45404306186352,0.04011075252833507,1.5031175956537923,121.76992958727773
180,0.014683444460388271,57.315958983975115,0.013323664628046572,0.00019563728957476165,82.91451637328151
181,34.55568359303288,124.74978986193054,0.03040865977067142,1.0507920255235097,120.21516768259184
182,28.36288790708932,123.03440905859087,0.014227196929198271,0.4035243917349359,116.05869791538186
183,41.299464713272755,126.29828854184431,0.047016334520378684,1.941749448471807,122.88193190471
184,2.5932329704810404,102.25623077883265,0.044758973395914836,0.11607044553517007,110.64721651478855
185,18.77251868693565,119.44985099301421,0.00814959868597498,0.15298849362349154,111.84658768440217
186,8.59126683010254,112.6605442405459,0.025221422821516626,0.21668397329448705,113.35826790566864
187,47.92555110091053,127.59074239824751,0.057210440990957075,2.7418419132177396,124.38042410994551
188,-1.9346008833526869,99.71122772150751,0.04635561900090579,-0.08967962146751292,109.52693766458937
189,6.513119830517097,110.25518145752152,0.03019214472379872,0.1966450565264156,112.9368303312418
190,-8.741231901905849,112.81085292819296,0.07463111540977252,-0.6523678868947207,118.14492574551443
191,-14.032228627329461,116.92193312765384,0.08335341205190616,-1.169634134780346,120.68050034314899
192,53.358096169497,128.52340659565772,0.06927574416556581,3.696421819399732,125.67781525152135
193,-16.99542078183731,118.58603851772658,0.09515563493312128,-1.6172100554512938,122.0876643301622
194,11.646729659420087,115.30347998408259,0.01925642775870529,0.2242744083117932,113.50779719579096
195,-15.449570352546287,117.75772821357133,0.08984391591428675,-1.3880498996660262,121.42405079058365
196,58.54383397428319,129.32902329710487,0.0741935641156033,4.343575699544214,126.3784739476989
197,-11.279694362907321,115.0253467280691,0.064007780841564,-0.7219882047407967,118.58530102475694
198,16.216521373266005,118.17855406274359,0.021305396193440632,0.34549941273683016,115.38447313518115
