nodenumber,sound-pressure,spl-db,particle-velocity,sound-intensity,sil-db
1,-2.90147651245934,103.23178127247502,0.00466599874567919,-0.013538285767752907,101.31563676997786
2,-4.53297187895805,107.10706058370606,0.008273223862431678,-0.03750229111672751,105.7405780076658
3,-5.297715729626361,108.46117310189449,0.013582036111699836,-0.07195376634930548,108.57053531586172
4,-6.104638587028602,109.69259923675995,0.014907413435707896,-0.09100437129241104,109.59062253668101
5,-6.765281156534911,110.5851170874904,0.017338325930154497,-0.11729864970113485,110.6929301270614
6,-7.691885903477669,111.70005675806595,0.02123451911074881,-0.1633334982150959,112.130752637203
7,-8.673230612970656,112.7430179671593,0.023053715714922873,-0.19995019288139174,113.00921827410693
8,-9.44137712183874,113.48010699131642,0.023369838977146173,-0.2206434630598832,113.43691065256698
9,-10.501697239684288,114.40458995814295,0.026313784101660083,-0.276339393866052,114.41442800657106
10,-11.695125220940099,115.3394976108588,0.031629096538495105,-0.3699062446429033,115.68091663002504
11,-12.984262485944784,116.247745816191,0.03405515902085199,-0.4421811237273325,116.45600199038635
12,-13.751965652452784,116.74669566604658,0.034893468831569414,-0.4798537848666742,116.81108924669077
13,-14.2260189531371,117.04106774606072,0.03675882165504163,-0.5229316935596087,117.1844496411103
14,-14.684521578252316,117.3165961222016,0.038178200151662615,-0.5606286039459256,117.4867525221657
15,-15.344939727627207,117.6987038254134,0.03879097923027075,-0.5952452382641434,117.74695929899885
16,-15.766513585040231,117.93411347368584,0.03857943820537457,-0.6082632365682582,117.84091568496412
17,-15.956802994012833,118.03831775039885,0.03872344162311947,-0.6179023292302739,117.90919832324059
18,-16.48962814695551,118.32361732872393,0.03679528973481183,-0.6067406452865364,117.8300308911315
19,-16.681630891922396,118.42417023666151,0.03632154855239378,-0.6059026663740712,117.82402863684841
20,-17.105851193220587,118.64229388084404,0.03893124623130007,-0.6659521047992487,118.23442995882964
21,-17.655989052844234,118.91724110432472,0.038295688680022984,-0.6761482601056166,118.30041934826176
22,-19.167067571295775,119.63051356491691,0.04456502088527259,-0.8541807666242272,119.31549788300116
23,-20.62425893479667,120.26696713776752,0.05117970669795113,-1.0555435231454915,120.2347614524408
24,-22.065145664208107,120.85353606292662,0.05251696341377965,-1.1587944475669356,120.64006405588665
25,-23.558522733801514,121.4223611666846,0.057273203543388725,-1.3492720677145642,121.30099529800648
26,-24.74604003947752,121.84951431243543,0.057780636584197964,-1.4298419464190624,121.55288033554773
27,-25.861165894515576,122.23236209091087,0.06163754806777887,-1.594018855912008,122.02493454431549
28,-27.401708498509837,122.73495292586031,0.07037405059224966,-1.9283692201882088,122.85190190841931
29,-29.189919963100692,123.28405817035777,0.07204697256037207,-2.1030453626209726,123.2284864050539
30,-29.726230981657864,123.44219704805856,0.07233217972884631,-2.1501630820264763,123.32471400817093
31,-31.15817016051733,123.85083898167014,0.07383365966302335,-2.3005217313542063,123.6182634008403
32,-32.41559461654106,124.1944799368665,0.07069261045660369,-2.2915430029463164,123.60128011599156
33,-32.7331348201551,124.27915207183027,0.06290581573279043,-2.0591045473532623,123.13678397703966
34,-32.06138926859421,124.09904682800124,0.05684532961316791,-1.8225402408293223,122.60677126113295
35,-30.11969935653906,123.55641273845714,0.05514189859417229,-1.6608574076052331,122.20332347834601
36,-28.10093406440865,122.9538152053034,0.05113574038284696,-1.4369620688331008,121.57445304311057
37,-26.585105938778725,122.47216799212632,0.05087643560113975,-1.3525554302437537,121.3115507234105
38,-21.849090408170014,120.76806732114656,0.037254462175553726,-0.8139761121814235,119.1061165980318
39,-17.878908596816473,119.02622016915436,0.026836594809594768,-0.4798090256505443,116.81068413188628
40,-15.851373030716784,117.98073781380535,0.01690632076577003,-0.26798839703517424,114.28115990996388
41,-13.306763316242723,116.46084873214649,0.01360271419144965,-0.18100809820411648,112.57698005403358
42,-11.485862387446106,115.1826722602728,0.01351154514065911,-0.15519174812737666,111.90868625182341
43,-7.98134422491421,112.0209209220025,0.005659011339901099,-0.045166517476443666,106.54816605968306
44,-6.413306934395223,110.121040592922,0.00826443460215387,-0.053002355742849235,107.24295172683505
45,-6.0066485272109285,109.55204449474152,0.004976920943192909,-0.029894614853474905,104.75592962570083
46,-4.593227975870832,107.22176011289123,0.001618475284089982,-0.007434025953137597,98.71224072940063
47,-3.9246524205373134,105.8554240929223,0.0010365438563439966,-0.0040680743547935475,96.09388882200909
48,-3.4394248490571044,104.70911657905512,0.0004515748594826618,-0.0015531577929141374,91.91215580075436
49,-2.7523259980080184,102.77339753519207,0.005004789477538907,-0.0137748121935873,101.39085686373569
50,-1.5303843072615564,97.67541016144058,0.014254536949238172,-0.021814919654394117,103.38753617794188
51,0.27719871223962395,82.83522425425136,0.0012677000239023073,0.00035140481413186017,85.45807706893427
52,1.0735281635134015,94.5956689354404,0.00040750485737817133,0.000437467941163979,86.40946232248105
53,1.056134256607038,94.45378267790028,0.002099947549368153,0.002217826543965705,93.45927577005078
54,1.2101001653209096,95.63582649215193,0.010785399479573243,0.013051413693283631,101.15657555807616
55,3.1891071752907014,104.05278238036112,0.0022733463927693265,0.007249945293101891,98.60334729468428
56,4.800601306458702,107.60531286640408,0.0013418083370311251,0.006441486855768798,98.08986124925707
57,4.461745863009128,106.96949667938351,0.006245752943186743,0.02786696235564054,104.4508963092779
58,4.105343338786041,106.24638976603579,0.004557577908258281,0.01871042210666656,102.72083585283451
59,4.827523844665848,107.65388863820877,0.001254998247304684,0.006058533963877208,97.8236754686842
60,5.0189053382055135,107.99158017695969,0.003737607545360788,0.018758698461528462,102.73202702348742
61,3.5833765738789225,105.06524909047798,0.003658362879377819,0.013109291840710718,101.17579231890056
62,1.4403776193212252,97.14892737984994,0.008704537340008756,0.01253782077109452,100.98222057281454
63,-1.8993653202342105,99.55157016927556,0.015009641200379063,-0.028508791965158577,104.54978814854844
64,-5.6607298610324515,109.03684868993335,0.019802327280103785,-0.112095625352421,110.49588664134886
65,-9.470697131793713,113.50703905294823,0.02578856911867433,-0.2442357275852929,113.87809194245236
66,-14.382285492334633,117.13595819408307,0.03611207914656234,-0.5193742320076434,117.15480398942695
67,-20.619629234308373,120.26501712434963,0.05380986780852482,-1.1095395233589276,120.4514277702406
68,-27.158061596201147,122.65737546655102,0.0698879991944068,-1.898022586956956,122.78301376338058
69,-30.41166500019608,123.64020404409348,0.07053612190622971,-2.1451209098252497,123.31451776236365
70,-30.742903158330588,123.7342976272292,0.07522277643664665,-2.3125665312925805,123.64094236008951
71,-30.745173222137968,123.73493897185641,0.07530061177271817,-2.3151303526851814,123.64575448856392
72,-30.740996076565352,123.73375879667505,0.07160583548159137,-2.2012347075987853,123.42666351858452
73,-31.218731750748702,123.86770520741152,0.07331350943979943,-2.2887547849070806,123.59599265253637
74,-30.868883038885546,123.76981839140949,0.07320393621535004,-2.259723745017678,123.54055349170515
75,-28.2816143836535,123.00948401517323,0.06687474399603842,-1.8913257217015065,122.76766328927505
76,-24.837169578662724,121.8814421370955,0.06138383628513111,-1.5246007512026716,121.8315612942004
77,-22.250655235489827,120.9262561781988,0.05536078129011912,-1.2318136580537964,120.90545015133772
78,-19.593449624924688,119.82161817994762,0.04996287898904938,-0.9789451525881472,119.90758360244831
79,-16.50136635355011,118.32979821371242,0.043109792289214965,-0.7113704759897859,118.5209583669908
80,-14.21386184905714,117.03364188717451,0.038049071589171035,-0.5408242470533621,117.33056154319335
81,-13.350609572284155,116.48942199674052,0.03861569256230269,-0.5155430347626603,117.12264923702699
82,-12.655991403604276,116.02532351003181,0.03823146252045717,-0.48385706100612497,116.84717083163548
83,-11.145412970086909,114.92132338657564,0.03823845393827696,-0.4261833604797429,116.2959648950559
84,-10.488339677962358,114.39353496828586,0.03540651259436345,-0.3713555309017361,115.69789896602812
85,-10.908700298110487,114.73486029191909,0.03638609716648489,-0.3969250290071109,115.98708485193264
86,-11.145279151955037,114.92121909824591,0.03611573233689569,-0.4025199186719919,116.0478737626983
87,-1.795509418938309,99.06315384078763,0.025669831138543486,-0.04609042359181072,106.63610699505313
88,-11.20286905343528,114.96598528031969,0.03343185039284435,-0.3745326421650741,115.73489674356945
89,-11.474782050063366,115.17428899425495,0.03482397635093548,-0.3995975387435457,116.01622804595516
90,1.493649348965846,97.46437316504677,0.009156860793552823,0.013677139162861054,101.35995265826004
91,-11.691080506090655,115.33649310918291,0.03691117314855319,-0.4315314968539871,116.3501249972833
92,-10.94802249391796,114.76611370761732,0.0350480354377396,-0.3837066803400069,115.83999360338652
93,-10.061369017741525,114.03254164227008,0.03128532812957019,-0.314773231152735,114.97997792121052
94,4.1936761397955715,106.43129785999601,0.00353077094115406,0.014806909851001332,101.70464432276268
95,-9.795399418537274,113.7998430775724,0.030726463066741868,-0.3009779784576703,114.78534720895556
96,-9.446417013547032,113.4847423599456,0.028751767553274018,-0.2716011861847973,114.33931662340376
97,6.228458822719404,109.8670120388732,0.006766171351955563,0.04214281965311889,106.24723589621006
98,-8.90520126699994,112.97227487524843,0.027233092508481604,-0.2425161699108569,113.84740700748337
99,-7.952000557139399,111.98892812306326,0.02669884549749213,-0.21230923427103612,113.2696888397165
100,-6.505775642464869,110.24538173007124,0.0272602495054457,-0.17734906724004362,112.48828908660415
101,9.07742629830318,113.138654715984,0.00427283564101799,0.03878635061610384,105.88678919021362
102,-4.752012862620177,107.51695223694661,0.026633428624108998,-0.12656239539744238,111.02304685954851
103,-2.6302015852561453,102.37918079042707,0.02574920582253526,-0.06772560197351901,108.30752873913632
104,13.63385780795943,116.67177529240772,0.015390260219362515,0.20982861945828307,113.21864723252807
105,17.930516130989414,119.05125590542022,0.02459552988233327,0.4410105453054089,116.44448974305011
106,20.70646341216343,120.30151867324273,0.02530794310274587,0.5240379978941211,117.19362778734562
107,22.723724909476005,121.10899054918586,0.028743477728767175,0.6531588808501554,118.1501883622694
108,25.874119803193025,122.2367117807594,0.03599239465006576,0.9312715311796051,119.69076326845631
109,28.579110470192965,123.10037423019398,0.043672459643119055,1.2481200486457438,120.96256359350404
110,30.457286724617013,123.65322432212987,0.039038154348986616,1.1889962602069395,120.75180488618656
111,31.36685039481381,123.90881833773949,0.04892102738386939,1.5344985471104209,121.85966481570559
112,29.61870142511907,123.41072036268082,0.04666105331801873,1.3820398064079582,121.40520552050013
113,26.96333420637529,122.59487198189196,0.03797488022138396,1.023929386856247,120.10270007463936
114,24.338310862411166,121.70520876378815,0.032370856480497416,0.7878519679048432,118.96444624137428
115,-3.676141737189028,105.28724504030755,0.032676697672968665,-0.12012417214910764,110.79630407691684
116,20.827314487934924,120.352065583361,0.01943190568101727,0.404714410718436,116.0714866864675
117,-1.0414956915337823,94.33254964062469,0.014990525168570912,-0.015612567376895332,101.93474325608021
118,16.305369375273585,118.22601291843573,0.002639232267256375,0.04303365698475597,106.33808253840289
119,11.034198342371383,114.8342158115152,0.005292559986003198,0.0583991566244576,107.66406575263274
120,2.3720371756789973,101.4818299109673,0.011270773316027771,0.026734693304268718,104.27075206314508
121,4.017005554938805,106.05744873269363,0.012740497337915713,0.051178648579090484,107.09088813743573
122,5.837019729005988,109.30322331110055,0.013783999224244779,0.08045747541652001,109.05566401217148
123,-2.4537592129490804,101.77603895121322,0.02858387429313325,-0.0701379448885541,108.45953036472253
124,-8.832879809764563,112.90144650614307,0.04374051161516945,-0.38635468191440253,115.86986179470316
125,9.752564803580754,113.76177698235495,0.004514760947245122,0.04403049871068368,106.43753604516337
126,-16.550913682760438,118.35583956125495,0.06224690254430242,-1.0302431110299506,120.12939719191112
127,15.360850593016947,117.70770538712192,0.012121503631021824,0.18619660623883869,112.69971760935455
128,-24.575158744162763,121.78932672381607,0.08098752016752543,-1.9902811644130205,122.98914432956265
129,21.23837285421905,120.52182490411515,0.02155109480156625,0.457710186812286,116.60590578206482
130,-31.049464577881736,123.82048239734186,0.0949977133738571,-2.9496281363813375,124.69767267334998
131,-33.0372825206432,124.35948643182644,0.09843222285343244,-3.2519331555437603,125.12141609961132
132,-30.213160697909192,123.58332329914292,0.09179744738378304,-2.7734910294641004,124.43026765541862
133,25.978889446851102,122.27181172245119,0.03087804622134627,0.802177349119113,119.04270394754249
134,-25.697867493334346,122.17734179513336,0.07752145940980881,-1.9921361918031637,122.99319025516772
135,-21.647820906859128,120.68768381343531,0.07093493072187584,-1.5355866763076276,121.86274335256269
136,-17.72170471266145,118.94951000398555,0.06671268407984599,-1.1822624878521009,120.72713910022304
137,30.916347978272825,123.78316382362725,0.038461797120589836,1.189098303649887,120.75217759553871
138,-13.027635849663055,116.2767122987432,0.05526500854438154,-0.7199724065447202,118.57315852104877
139,-8.992793486133449,113.05729249126786,0.0468178561853847,-0.4210233121386602,116.2430614346722
140,35.75436221793643,125.04598079777305,0.044094165896353836,1.576558779156015,121.97710167273728
141,-5.915307542964,109.41894666613491,0.037906205278147816,-0.2242268620069696,113.50687639135789
142,-3.1790564341063146,104.0253648369216,0.030942161327971007,-0.09836687705484183,109.92848883655178
143,-2.23489485803293,100.9645420128114,0.027236692119686268,-0.06087114316811287,107.84411457937357
144,39.884589655237505,125.99550265185644,0.05122729548162397,2.0431796594321745,123.1030655638746
145,-3.181994939383003,104.0333897789795,0.0424485132801351,-0.1350709544417221,111.30561968697278
146,-2.5471778560458915,102.10058549720229,0.02746367763700164,-0.06995487152255332,108.4481796331242
147,-2.5378698470594827,102.06878700333412,0.028761385341965706,-0.07299265261903336,108.6327914659165
148,44.23285454715369,126.8942994321383,0.0536128390587578,2.3714489119459943,123.75013773095444
149,-2.4377975547540696,101.7193528284976,0.03034612130613823,-0.07397770031637416,108.69100826635605
150,-1.1133022675930988,94.91166195967588,0.0041863562632329385,-0.004660679920809801,96.68449278131195
151,-3.2477721415780247,104.21111113156007,0.03571454322633372,-0.1159926985396708,110.64430652298199
152,48.51983970227593,127.69778723459623,0.06898396708868404,3.347091025170028,125.24667523290407
153,-4.627514180858269,107.28635525287045,0.04097685292913411,-0.18962096801651185,112.77886359322555
154,1.983005209971452,99.92587719139004,0.03381364572879875,0.06705263564833686,108.2641585340361
155,-3.826124743369292,105.63458259173143,0.038347651006859,-0.14672289636743352,111.66497891553715
156,51.46660704187525,128.20991084960144,0.07614738511460928,3.919047546959936,125.93180532489859
157,-2.875142231307109,103.15258676284336,0.031537196941201266,-0.09067392678269716,109.57482423970026
158,-3.9291821609076583,105.86544335902744,0.03683225578663496,-0.14472064238283394,111.60530481592916
159,52.595834841849864,128.39842714590762,0.07161930575477983,3.7668771769663465,125.75981459800987
160,5.865124168107287,109.3449443030591,0.02379647647649108,0.13956928929806434,111.44789867028813
161,-4.666425087751122,107.35908605258192,0.0375157514855573,-0.17506444391804102,112.43197948606436
162,-4.3211951702687665,106.69147772702307,0.039443851782664296,-0.17044458182004601,112.3158320020817
163,53.60821503130136,128.56402702586865,0.07256397817741345,3.89002534566144,125.89952431003096
164,10.314699475376983,114.24853166826634,0.017901935332020003,0.1846530829774194,112.66356563050651
165,-3.9860050765564665,105.99015703632313,0.044316301421758915,-0.17664500244133755,112.47101355086167
166,-3.3605776374752168,104.50767874884272,0.04395749482347355,-0.14772257410319786,111.69446866736014
167,54.11925941913796,128.6464369862585,0.06798692698498597,3.679402138610448,125.65777256446285
168,-2.177538338190061,100.73871628722891,0.04184499086142068,-0.09111907186195628,109.596092873739
169,15.091949187815773,117.55430677334463,0.012084201682966977,0.18237415777465546,112.6096329928306
170,53.59084295094361,128.56121185235997,0.06989734956135862,3.7458578830299785,125.73551296320936
171,-0.3159863866458181,83.97276754086347,0.03798956299897327,-0.012004184742299234,100.79332670520205
172,19.976355945967953,119.98972544330236,0.003460888348968183,0.06913593754824178,108.39703856661173
173,54.3547063601145,128.68414316472922,0.07580366905091296,4.1202861722816735,126.14927380772623
174,53.09765844707727,128.48090747786551,0.07534082951144683,4.0004216325182815,126.02105767084456
175,25.201678730809363,122.0079895049262,0.008455937214364441,0.21310381304430767,113.28591220569606
176,-0.2257114574313164,81.05047218745183,0.04726310619940932,-0.010667824582999762,100.28075865729727
177,47.41583795253246,127.49786868665882,0.0662862270787059,3.143017001648688,124.973467302706
178,30.704846721826467,123.72353876135044,0.020783035192494026,0.6381399099998544,118.04915906745407
179,39.28668088433915,125.86430687089457,0.042430052528402484,1.666935933589096,122.21918908632202
180,1.835003444459289,99.25213776265974,0.009844664628076316,0.01806499350206657,102.5683780968942
181,36.508803593023906,125.22735211056765,0.032880659770683,1.2004335495769085,120.79338124533984
182,30.22225790708035,123.58593823446715,0.015020596929218756,0.4539563543131483,116.5701409957043
183,43.34634471326717,126.71844969491899,0.048359134520410414,2.0961917149569675,123.21431000134369
184,4.4760429704765565,106.99728502968789,0.04720037339586725,0.21127089954244024,113.24839681441857
185,20.538138686941238,120.23062173015491,0.0066236986858712035,0.13603844223093325,111.33661650205823
186,10.247516830102539,114.19177289185278,0.02311572282161478,0.23687875865448285,113.74526118499273
187,50.67555110091053,128.0753696943205,0.05852274099100896,2.9656721516552254,124.72123139073757
188,-0.293970883343718,83.34548643446266,0.04461611900097751,-0.0131158399140858,101.17796107230824
189,8.622499830511515,112.69206397677445,0.026682644723791785,0.2300710996084936,113.61862068173912
190,-7.31155190190475,111.2595914313525,0.07237281540977847,-0.5291575961555671,117.23585034885271
191,-12.727538627339527,116.0742885621178,0.08097301205185659,-1.0305871386620338,120.13084718327886
192,56.27996616950258,128.98647664079374,0.07037444416556582,3.960671336835593,125.97768805413429
193,-15.721980781847376,117.90954530810845,0.09210393493310676,-1.4480562949508258,121.60785445915864
194,13.912349659411118,116.84740977202536,0.018951327758713887,0.2636574982893317,114.2104012696418
195,-14.238630352541804,117.04876439669584,0.08612071591431912,-1.2262410396002543,120.88575846918987
196,60.75477397427312,129.65100827672765,0.0753226641156175,4.576211433484434,126.6050608184141
197,-10.139064362898353,114.09935768611751,0.06068138084151543,-0.6152524259816718,117.89053334830551
198,18.29464137327159,119.22587809683151,0.020756096193451867,0.37972533616832943,115.79469575256745
