nodenumber,sound-pressure,spl-db,particle-velocity,sound-intensity,sil-db
1,-4.292096512450372,106.63278966645409,0.006496998745774364,-0.027885745658132576,104.45382261912847
2,-5.525161878947984,108.82630022111744,0.010287323862371522,-0.056839129640767073,107.54647419095224
3,-6.227405729616294,109.8655433250066,0.015931936111655887,-0.0992146302256066,109.9657571809932
4,-7.049948587038671,110.9431190834368,0.017104713435628582,-0.12058735031721107,110.81301752451158
5,-7.741851156533812,111.7562964346007,0.018803225930184908,-0.1455717764141686,111.63077181737032
6,-8.621575903482153,112.6911332074665,0.02312661911065561,-0.1993879020534383,112.99698803770886
7,-9.610730612970656,113.6345281712475,0.02522041571489808,-0.2423866213830172,113.84508645115216
8,-10.417937121834255,114.3350347245364,0.025292438977032816,-0.2634950389205578,114.20772442737528
9,-11.509507239679804,115.20053469542572,0.028388984101638925,-0.3267432180449681,115.14206582033106
10,-12.734185220950167,116.07882333597885,0.034314596538479236,-0.4369684281031701,116.40450059405417
11,-14.054582485943685,116.9357590610517,0.03756465902091577,-0.5279555987658092,117.2259739976518
12,-14.8613456524472,117.42056279334513,0.03849456883159519,-0.5720810931482566,117.57457594895423
13,-15.3510189531371,117.70214424459714,0.04026832165504857,-0.6181597689376717,117.91100736901794
14,-15.786081578247831,117.944886942578,0.04080270015157339,-0.6441147532055227,118.08963246621168
15,-16.446499727622722,118.30086973033433,0.04019477923026216,-0.6610634256623621,118.20243129824085
16,-16.836823585035745,118.50460331501628,0.03925083820530517,-0.6608594384275042,118.20109096994202
17,-16.956802994012833,118.5662795770472,0.03918124162316872,-0.6643885952648875,118.22422168848534
18,-17.458368146966677,118.81947303231493,0.0375276897348158,-0.6551722230955564,118.16355476646072
19,-17.681630891922396,118.92984649335705,0.03781694855240403,-0.668665325762427,118.25208803055621
20,-18.105851193220587,119.13577902087644,0.04073174623130171,-0.7374829361039723,118.67751976051396
21,-18.616929052848718,119.37756096077021,0.03997418867999159,-0.7441966346005917,118.71687701727308
22,-20.14362757129129,120.06215375300852,0.04648762088527292,-0.9364293217883204,119.7147500401166
23,-21.58519893480116,120.66252119835049,0.05301070669798946,-1.1442466497504986,120.58519649526691
24,-22.971395664208107,121.20314773189266,0.05416496341376842,-1.2442448057150304,120.94905836392948
25,-24.394462733805995,121.72522523885245,0.05870750354341681,-1.4321380073846646,121.55984870595915
26,-25.417910039483104,122.08219685243778,0.058635136584200616,-1.4903826268500158,121.7329777941694
27,-26.34554589452455,122.39354412327835,0.0621563480677878,-1.6375429206559458,122.14192691845348
28,-27.83138849851093,122.87009756029236,0.07113695059223346,-1.9798401085318271,122.96630118147272
29,-29.650859963105177,123.42014596100607,0.07299297256031423,-2.164304407676656,123.35318343900656
30,-30.24967098166235,123.59381319268809,0.07278997972872503,-2.2018729375558044,123.42792253731766
31,-31.56442016051733,123.96335640136236,0.07349795966302962,-2.319920479744622,123.65473098770217
32,-32.72809461654106,124.27781452736895,0.07017381045659478,-2.2966551082266515,123.6109578150755
33,-33.022194820150624,124.3555187920895,0.06290581573279043,-2.077288102448701,123.17496733716922
34,-32.34262926860538,124.17490653939673,0.05776092961315271,-1.868140332688208,122.7140949685284
35,-30.47125935653457,123.65720816053481,0.056270998594186494,-1.714648192414649,122.34175025972787
36,-28.51500406440755,123.08086884319277,0.052264940382826815,-1.4903349874423246,121.73283897168056
37,-26.881975938784308,122.56862384740032,0.051334235601188986,-1.3799656862670473,121.39868287524315
38,-22.263150408180078,120.93113249431141,0.03838366217547673,-0.8545412442294111,119.31733028682235
39,-18.457038596810893,119.30264049480179,0.028240394809586174,-0.52123405698971,117.17032784399493
40,-16.351373030716783,118.2504846145698,0.01794392076578788,-0.29340774207502285,114.67471569275837
41,-13.845823316252789,116.80577579405735,0.013907914191463531,-0.19256652259260887,112.84580787892246
42,-12.03274238744052,115.58669246394331,0.013236945140590706,-0.15927675087341062,112.02152387827104
43,-8.676664224913111,112.74645591016242,0.006696611339918945,-0.05810424804122216,107.64207885116993
44,-7.186746934399707,111.11004713460316,0.009424134602227241,-0.06772887046192683,108.30773832785708
45,-6.6238285272120265,110.40158171126194,0.005800820943306917,-0.03842364324552534,105.84598541327681
46,-5.272917975875316,108.42042039898668,0.002564475284088985,-0.013522267824160768,101.31049533390016
47,-4.776212420547381,107.56107275995096,0.0006419561436246112,-0.0030661189066265673,94.86588993144069
48,-4.3847448490560055,106.8182866183167,0.003106674859395753,-0.013621976587427316,101.3424012950995
49,-4.010135998003533,106.04258211359259,0.0068052894774837105,-0.02729013631049209,104.36005704916752
50,-3.233514307270525,104.17289582476221,0.014193536949221652,-0.04589500479608105,106.61765419577527
51,-1.5196712877659593,97.61439324893324,0.0016949000238923873,-0.0025756909019430995,94.10893743922665
52,-0.7780318364821142,91.79934745390793,0.0022779951425491163,-0.0017723527442548247,92.4855016204172
53,-0.8266757433884777,92.32610397857457,0.005334747549397889,-0.00441010639618836,96.4444906718215
54,-0.6492698346846737,90.22790460392241,0.012006099479606291,-0.007795198224331723,98.91827163352812
55,1.1344171753007686,95.07485595058556,0.004257046392808661,0.004829266544054327,96.83881176288182
56,2.534981306467671,102.05889530860551,0.0004891916629503612,0.0012400917208589993,90.93453808057224
57,2.1726858630136117,100.71933885775152,0.007435952943126267,0.016155989837564902,102.08333571318272
58,1.7225333387905266,98.70275281108744,0.006205477908281409,0.01068914258014283,100.28942870068741
59,2.265023844665848,101.08085565345272,0.0017357017527501741,0.00393140585720745,95.94547880362236
60,2.315775338211097,101.27332857895232,0.00013809245461970932,0.00031979110080135786,85.04866373961062
61,0.9896265738789224,93.88882705952216,0.0067711628793176715,0.006700922721435286,98.2613460945244
62,-1.2236823806742905,95.732774223616,0.011176437339941005,-0.01367640945159604,101.35972094457613
63,-4.750935320233111,107.51498244523262,0.01784774120039856,-0.08479346405535322,109.28362377798115
64,-8.465419861036935,112.53237014202128,0.023128727280152358,-0.19579438727790854,112.9180023798208
65,-12.236317131799295,115.73241457034108,0.028779269118615506,-0.3521522637567773,115.46730484532743
66,-17.077595492330147,118.62793453564785,0.03904167914657819,-0.6667380038066036,118.23955210447457
67,-23.182129234308377,121.2824665382908,0.05628176780857075,-1.304731214873624,121.15521052731592
68,-29.60337159621122,123.40622362022499,0.07248199919445142,-2.145711556189628,123.31571340195322
69,-32.708535000201664,124.27262194104715,0.07343532190623138,-2.4019617968210447,123.80566095672319
70,-32.96165315833059,124.33957979014437,0.07787777643665095,-2.5669802556468992,124.09422528236469
71,-32.97955322214693,124.34429544492764,0.07807771177272116,-2.574968050871905,124.10771844866099
72,-32.97537607655977,124.34319523222159,0.0745050354815362,-2.4568315646010856,123.90375383150095
73,-33.554671750753194,124.49445998029327,0.07682300943974951,-2.5777708646558084,124.1124431075275
74,-33.314203038884436,124.4319886525482,0.07683553621535566,-2.5597146540799174,124.08191554739376
75,-30.6878643836535,123.71873341178132,0.07029264399596967,-2.1571311261167536,123.33876545481807
76,-27.173109578667212,122.66218688936749,0.06443553628514563,-1.7509138882364497,122.43264787554978
77,-24.477215235485343,121.7546402216676,0.05798538129016606,-1.4193206583510796,121.52080524012916
78,-21.76531962491572,120.73470107029232,0.05264837898903352,-1.1459087964300116,120.59150053247956
79,-18.72793635354901,119.42919858175034,0.0460699922891763,-0.8627958834001874,119.35908064315477
80,-16.416991849051556,118.28527173795408,0.04067357158919549,-0.6677376932516372,118.24605892496992
81,-15.436549572288639,117.75040472539636,0.04081299256222337,-0.6300117828802086,117.99348671980567
82,-14.570061403603175,117.24862772773422,0.04061186252039306,-0.5917173306368173,117.72114289388071
83,-13.020412970086909,116.27189526719437,0.040771453938305065,-0.5308611676676082,117.24980957994228
84,-12.472719677956775,115.89862332204235,0.038244712594291734,-0.4770155793526239,116.78532563351195
85,-12.885270298109392,116.18127075283466,0.03934629716650306,-0.5069876742201276,117.04997400983723
86,-13.098409151949456,116.323771131921,0.039045432336934034,-0.5114330482639198,117.08788788248236
87,-3.990819418948377,106.00064162246315,0.020603831138657824,-0.08222616941288889,109.15010058694106
88,-13.163809053439765,116.36703156761604,0.036544650392897886,-0.4810667996968203,116.82205385574352
89,-13.420092050058885,116.5345099811675,0.038119876351004216,-0.5115722495673394,117.08906977975012
90,-1.0532206510397373,94.42978740578224,0.015046660793586852,-0.01584745387699563,101.99959496459444
91,-13.519210506085074,116.59842669566395,0.039566273148523116,-0.5349047756361456,117.28276475298584
92,-12.66677249391796,116.03271949308323,0.0388932354377971,-0.4926517648429637,116.92540042916242
93,-11.866059017746009,115.4655301675205,0.03552722812963793,-0.4215681857232099,116.24867828755264
94,1.1702461397944717,95.34494443124704,0.008627170941110762,0.01009591349118191,100.04145620578414
95,-11.740719418536171,115.3732942735516,0.034907363066793096,-0.4098375554081901,116.12611752403956
96,-11.524547013556006,115.21187736512668,0.03360406755331269,-0.387271656364864,115.88015713007826
97,2.900338822728372,103.22837480501568,0.010702871352009424,0.031041953296900238,104.91949041174269
98,-11.092701266999939,114.88014643350864,0.030559492508416494,-0.33898732126698683,115.30183455115305
99,-10.209810557134915,114.159753763416,0.028957145497543024,-0.2956469698053065,114.7077343211382
100,-8.841715642469351,112.91013095658327,0.027382249505421896,-0.2421060637780875,113.84005666898916
101,5.5774262983031795,108.90807688878107,0.007324635640998167,0.04085261544959195,106.11219865983843
102,-7.119202862624661,111.02802745455782,0.025321128624113957,-0.1802662513856793,112.55914427726957
103,-5.028631585257244,108.00839646447685,0.024436905822483368,-0.12288419646489653,110.89496033989755
104,9.829167807954946,113.82973507873972,0.011483960219322851,0.1128777720956034,110.5260842902292
105,13.766446130990515,116.75583688037857,0.020689329882316088,0.2848185453111968,114.5456826398202
106,16.198653412153362,118.16897835290844,0.021218543102747844,0.3437118256322496,115.36194474582615
107,17.958094909481584,119.0646053367046,0.02428797772881808,0.4361658092134901,116.39651618482719
108,21.09286980319302,120.46211352589256,0.029736194649956364,0.6272216821939345,117.97421062900908
109,23.961930470191874,121.56983615971257,0.03698915964315575,0.8863316715201252,119.47596268339264
110,26.332286724617013,122.38917159376396,0.0337891543489377,0.8897457004985672,119.4926589804789
111,26.59341039482388,122.47488080151899,0.04486222738393053,1.1930396240467709,120.7665486799481
112,23.83745142511907,121.5245965081064,0.0419307533180131,0.9995222954367876,119.99792485975071
113,21.424274206379774,120.59752245031387,0.031108480221405443,0.6664766104071321,118.2378491271558
114,18.768000862415647,119.44776038127813,0.02706085648054568,0.5078781777645874,117.05759552698599
115,-6.433951737184542,110.14895606307188,0.028526397672919764,-0.1835374658632992,112.63724731023204
116,15.131994487936025,117.57732357516491,0.013999705680930674,0.21184346919656966,113.26015079922512
117,-4.189935691523715,106.42354723325049,0.02493922516850944,-0.10449374965248424,110.19090313675602
118,10.742869375273584,114.60180598850094,0.0044713677327195,0.0480353194814188,106.81560683526405
119,5.581068342376965,108.91374689983972,0.01347135998611293,0.07518458074725867,108.76128782306931
120,-1.4717128243210027,97.3358615723459,0.013834273316035706,-0.020360077454371597,103.0877942582298
121,-1.1236244450556114,94.99182366557888,0.01875239733800527,-0.02107065205237849,103.23677975492686
122,1.4307697290059878,97.09079494962872,0.011983399224277493,0.01714548486069007,102.34149771127531
123,-7.219379212954665,111.14939717944445,0.03270377429311111,-0.23610094831684744,113.73097731458002
124,-13.364119809775731,116.49820729567894,0.04935581161515756,-0.6595969797336863,118.19278658361206
125,4.8775648035807535,107.74346105000154,0.007597060947205136,0.03705515708674564,105.68848658697434
126,-21.11341368276044,120.47056922821999,0.0674654025443715,-1.4244249531932742,121.53639573075243
127,10.024910593012462,114.00101024795734,0.006018003631083957,0.060329948350041025,107.80532953506331
128,-29.262658744162763,123.30567574018309,0.08645012016756938,-2.5297603648554454,124.03079383962385
129,15.496192854217954,117.78390033980763,0.01645469480160955,0.2549851240030392,114.06514844152207
130,-35.75258457788732,125.04554894084222,0.10131481337396052,-3.6222664341453927,125.5898039148425
131,-37.568542520632036,125.47588702364149,0.10404742285339807,-3.908910029630067,125.92055674503656
132,-34.23660069789912,124.669212840332,0.0959172473838521,-3.2838804987225534,125.16387344644217
133,20.033579446855587,120.01457113962459,0.02462194622137304,0.4932657157620824,116.93080931045408
134,-29.19004749333544,123.2840961187703,0.08090885940993076,-2.3617334488074793,123.73230880472929
135,-24.929060906870287,121.9135184601284,0.07456653072188146,-1.8588735859797976,122.69249856271007
136,-20.956084712670414,120.40560299406421,0.07098508407977988,-1.4875694353118991,121.72477246446985
137,24.955417978271733,121.92269705193873,0.03162589712059116,0.7892374815821727,118.97207702096847
138,-16.160445849658572,118.1484668533326,0.060147808544456886,-0.9720154029583268,119.87673146990886
139,-11.984983486137937,115.55214888601351,0.05197535618543725,-0.6229237855686026,117.9443491418442
140,30.09029221793753,123.5479281938128,0.036586865896367726,1.1009094861601978,120.41751613906278
141,-8.774677542969584,112.84402340114237,0.043857105278220836,-0.3848319567844573,115.85271129059343
142,-5.975926434097348,109.50750493695614,0.03643536132801728,-0.21773503889598664,113.37928323274916
143,-5.008334858022863,107.9732672500722,0.03190589211965289,-0.15979539167917453,112.03564250590216
144,34.384589655237505,124.70667700372783,0.04436079548162297,1.5253277494155202,121.8336317120355
145,-6.4554349393729344,110.17791025627848,0.038969513280108,-0.2515651575987668,114.00650490070356
146,-5.304987856041407,108.4730879681113,0.031522577637076665,-0.16722689155581413,112.23306117093536
147,-5.256619847059484,108.39353149585787,0.031874185341905566,-0.1675504752771132,112.2414566410167
148,38.498484547162654,125.68827277260029,0.04866893905887082,1.8736803982847396,122.72695513393471
149,-5.09404755475407,108.12065998553408,0.03358092130605428,-0.17106281006549465,112.33155601949586
150,-5.082052267593099,108.10018263359508,0.02573175626326929,-0.13077013026690062,111.16508556360792
151,-5.841532141566859,109.30993549937357,0.039651343226296376,-0.2316245959127096,113.647846746668
152,41.840149702286,126.41126468170609,0.0666951670886533,2.7905357754082325,124.45687594658729
153,-7.174384180849303,111.09509266637565,0.04628685292919954,-0.3320796654365473,115.212422828279
154,-2.8529347900330317,103.08523698742252,0.029693745728820886,-0.08471432023614786,109.27956830329023
155,-6.412064743359224,110.11935806323744,0.045549751006944916,-0.29206795250042283,114.65483906114991
156,44.294737041869666,126.90644264302948,0.07205798511449757,3.1917895024136285,125.0403424202874
157,-5.742332231311593,109.16116639974312,0.03828159694120359,-0.21982564798155266,113.42078362004813
158,-7.241682160907657,111.176189279016,0.04293575578662967,-0.3109270967451238,114.92658571686457
159,45.50989484184538,127.14151672668386,0.06359320575478478,2.8941201065560915,124.615165504638
160,0.3963741681072861,85.9415069578783,0.025688576476511567,0.010182288130737672,100.07845382214084
161,-8.174245087750023,112.22835318648464,0.04160505148553284,-0.34008988773120363,115.3159371876651
162,-8.141505170278831,112.1934941469543,0.04054245178264182,-0.3300765808041587,115.18614711884595
163,46.006655031305854,127.23581325701305,0.06636897817736552,3.0534146837863223,124.84785789772049
164,4.361579475385952,106.77227589606106,0.022357535331991585,0.09751416722423074,109.89067716214831
165,-8.10319507656095,112.15252597174695,0.04495720142170967,-0.3642969732163568,115.61455562894687
166,-7.3136976374808,111.26214012257172,0.04615469482359913,-0.3375614824900043,115.28352885535419
167,46.947379419143545,127.4116271899796,0.061974926984987626,2.9095604116379317,124.63827378944319
168,-5.841598338185578,109.31003392787704,0.04703299086139623,-0.27474784125582963,114.38934288777551
169,8.927879187816869,112.99436618180846,0.016173601683021843,0.1443959618578906,111.59555048030316
170,47.09084295094361,127.43812937897543,0.0603453495613735,2.8417133790144335,124.53580271976476
171,-3.9253663866547863,105.85700407153669,0.044367662999036384,-0.17415933299084474,112.40946752740949
172,13.687295945957885,116.70575323969362,0.008648888348943728,0.11837989443553988,110.73277948356878
173,48.73751636011003,127.7366679663034,0.06365766905088321,3.1025166868138903,124.91714126019826
174,46.6445284470683,127.35541422538596,0.06978662951155458,3.2551644254767234,125.125729306227
175,18.86573873081943,119.49287639984293,0.0012842372143495595,0.02422808375431414,103.8431906631096
176,-4.038211457431316,106.10318121983916,0.046164406199409314,-0.186421634039968,112.7049631037304
177,39.986147952527965,126.01759145844372,0.06320392707868905,2.5272815793492494,124.02653631925816
178,24.423596721826467,121.73559249382023,0.011322535192505256,0.27653703341043623,114.41753299578578
179,33.356990884334664,124.44313741208245,0.035288952528389934,1.1771332678072215,120.70825633783879
180,-2.9384365555451946,103.34172645072628,0.03212246462805979,-0.09438982431729837,109.74925177761558
181,30.51662359302281,123.67012970511921,0.02409155977068167,0.7351930612907035,118.66401399551371
182,24.65975790708035,121.81917626010993,0.01196889692920422,0.29515010068897346,114.70042935714619
183,37.338534713271656,125.42254550283432,0.04262183452033241,1.591436847780752,122.01789409400936
184,-1.1958270295144755,95.53276739950049,0.041249473395851055,-0.049327235239996964,106.930867742162
185,15.038138686941238,117.52328180117482,0.009767098685927069,0.14687898460801274,111.66959661537851
186,5.020956830107026,107.99512983375759,0.02885302282157909,0.1448697820052414,111.60977806610019
187,43.43337110090943,126.73587085941507,0.05336524099101325,2.317832315852142,123.65082013623136
188,-5.434600883352686,108.68275318755954,0.04974301900097089,-0.27033345500330586,114.31899794956051
189,2.403749830511515,101.59718541920874,0.03562424472386283,0.08563177221708601,109.32634932181736
190,-11.858421901895777,115.45993804114737,0.07856781540982638,-0.9316903030399899,119.69271575409357
191,-16.836918627333947,118.50465234591448,0.08744271205182486,-1.4722658273699682,121.67986231833609
192,48.33465616949252,127.66457275809536,0.0668343441656134,3.2304150455584515,125.0925832431743
193,-19.72979078184289,119.8818496855575,0.10016053493319532,-1.97614639882941,122.95819115276207
194,7.09984965941112,111.00438313777953,0.023864627758769075,0.16943526926506974,112.2900381716876
195,-18.144880352541804,119.15448226282835,0.09606951591428016,-1.7431698717912243,122.41339711141428
196,53.45009397427202,128.53836954888737,0.07248456411559799,3.8743067636628585,125.88194004739195
197,-13.842194362907321,116.80349894716957,0.07063008084156762,-0.977675306876836,119.90194646357395
198,11.810261373277173,115.42459026882284,0.02115279619346211,0.24982005182044995,113.97627294108071
