nodenumber,sound-pressure,spl-db,particle-velocity,sound-intensity,sil-db
1,-7.674916512449273,111.68087328532756,0.014095898745665638,-0.10818484604092216,110.34166431364632
2,-7.759531878953568,111.77611052085408,0.016299323862426718,-0.1264751231158887,111.0200511084024
3,-8.328975729615195,112.39123201803223,0.021058836111592427,-0.17539853486739734,112.44025961312448
4,-9.143708587027504,113.20184761674257,0.022353713435620648,-0.2043958414932366,113.1047205567543
5,-9.890281156534913,113.8835728407996,0.02283152593014393,-0.2258102106818407,113.53743575952636
6,-10.668445903473184,114.54142327426649,0.0280399191107108,-0.2991423601703821,114.75877915825184
7,-11.62635061297624,115.28826840130024,0.030713615714887513,-0.3570872648934991,115.52774361855892
8,-12.464817121828673,115.8931183089983,0.03057193897700472,-0.3810736284080698,115.81008895155952
9,-13.400137239674224,116.52158501241651,0.03360748410165115,-0.4503448992422949,116.53545248142349
10,-14.538875220940099,117.23001627187942,0.039594196538473625,-0.5756550829462465,117.60162343768805
11,-15.820202485934715,117.96364084310314,0.04403435902088404,-0.6966324760487315,118.430037168061
12,-16.728535652451683,118.44855861201296,0.0421871688314468,-0.7057295578728562,118.48638307248864
13,-17.233828953132615,118.70703565132263,0.039383321655066084,-0.6787254290096126,118.31694120698276
14,-17.4188915782579,118.7998104058228,0.038574900151559184,-0.6719320033821335,118.2732532655076
15,-17.860559727618238,119.01730138696121,0.03747867923033255,-0.6693901889055995,118.25679342716431
16,-17.98526358504023,119.07773622777,0.03726713820526584,-0.6702593036818292,118.26242851016927
17,-17.753672994018412,118.96516441315028,0.03912014162312971,-0.6945262018567337,118.4168863467715
18,-18.30212814695551,119.22943192367056,0.038931489734750364,-0.712529114077284,118.52802614399548
19,-18.7441308919224,119.4367062530452,0.042852348552401054,-0.8032300302924865,119.04839937035149
20,-19.00428119322169,119.55642904172376,0.04500424623137178,-0.8552733502699766,119.3210493992225
21,-19.312239052844234,119.69605265906898,0.042903888680029915,-0.8285701544853555,119.18329285737849
22,-20.909257571285707,120.38617233712635,0.0498140208853215,-1.0415741933525928,120.17690211024993
23,-22.327378934802255,120.95615495033077,0.05423140669796567,-1.2108451675128526,120.83088612842616
24,-23.658895664208107,121.4592894672553,0.0547752634137737,-1.2959222420859873,121.12578943782965
25,-24.964772733801514,121.9259524231188,0.05910420354337021,-1.475523009072583,121.68945986208288
26,-25.511660039483104,122.114174466702,0.056834536584176476,-1.4499433758370754,121.61351042206232
27,-25.853355894520067,122.2297385802913,0.058890948067926274,-1.5225286393657966,121.82565470632696
28,-27.182948498521,122.66533133272722,0.06866505059224437,-1.8665185338973176,122.71032306680952
29,-29.025859963105177,123.23510199977228,0.07155867256039983,-2.0770520088838618,123.17447371300858
30,-29.71842098166235,123.43991469645302,0.0709588797287779,-2.1087858601669685,123.24032480891891
31,-30.736300160511746,123.73243186100392,0.06986635966296717,-2.1474334017232293,123.31919703952593
32,-31.49371461654664,123.94387784205263,0.06718301045663111,-2.1158425584016087,123.25483348353085
33,-31.467504820146125,123.93664623459145,0.061196915732750774,-1.9257142407984116,122.84591842055443
34,-30.639509268599795,123.70503619128031,0.05577722961322706,-1.7089869437112897,122.32738744817985
35,-29.08844935653906,123.25381149767195,0.05416529859417096,-1.5755845450383583,121.97441712148859
36,-27.46812406441313,122.75598009253721,0.051349340382842,-1.410470052261683,121.49363869452341
37,-25.663225938784308,122.165625036582,0.04816043560111893,-1.2359521401417866,120.92001653863836
38,-21.403770408171113,120.58920576233007,0.03603376217552068,-0.7712583725474851,118.87199891636354
39,-18.066408596816476,119.11683665027674,0.02643989480958453,-0.4776739428868012,116.7913155116586
40,-15.984193030715687,118.05321439883858,0.016540120765796473,-0.2643804830718398,114.22229391785407
41,-13.767703316247209,116.75663006067438,0.01296191419146453,-0.17845578899873793,112.51530640772648
42,-12.149932387445006,115.67087730986586,0.012382445140644904,-0.15044587125008255,111.7738027371179
43,-9.395404224924278,113.43770948248171,0.007612111339938109,-0.07151886304384852,108.54420601737141
44,-8.249246934399707,112.3076861676282,0.010309134602209724,-0.08504259701359251,109.2963651411462
45,-7.5066485272109285,111.4883217269034,0.007998120943227605,-0.06003908279893438,107.78434049020862
46,-6.452597975876415,110.17409223808832,0.006257075284111124,-0.04037439131316178,106.0610598793785
47,-6.416842420541798,110.12582757433806,0.006928556143691368,-0.04445945297594425,106.47964114885906
48,-6.21286484906159,109.84523821340024,0.009118574859485308,-0.056652473218032975,107.53218874155256
49,-6.8148259980080175,110.6484955173692,0.014159989477548153,-0.09649786442311513,109.84517702157062
50,-7.506954307260457,111.48867553561851,0.021975536949241814,-0.16496935175547214,112.17403267851415
51,-6.082171287765959,109.66057302071914,0.008958100024017313,-0.05448469875901365,107.3627455406472
52,-5.309281836482113,108.48011568519995,0.007343895142582824,-0.03899080908954421,105.90962247228987
53,-4.975115743392962,107.91546386325842,0.009942947549291148,-0.049467314888208866,106.94318337271747
54,-4.508639834690257,107.06031096249464,0.013806599479551096,-0.062248984395117835,107.94132270222485
55,-2.9671428247092986,103.42616912219258,0.008224246392842359,-0.024402513673163543,103.87434564787756
56,-1.6681486935412977,98.4240952802165,0.0043038916630280255,-0.007179531254823485,98.56096090469458
57,-1.7570041369908722,98.87485576819364,0.009053452943135198,-0.01590695427514073,102.0158703268711
58,-2.2462166612094734,101.00843297233124,0.008585877908330986,-0.019285742008803404,102.852363527758
59,-2.2662261553341523,101.08546503851014,0.006496401752713154,-0.014722315567557182,101.67976122441942
60,-2.6607846617989708,102.4795946542107,0.006027992454676222,-0.016039189864842422,102.0518242840488
61,-3.8306834261165936,105.64492534005166,0.011104662879290572,-0.04253844804431056,106.2878164122992
62,-6.184622380678776,109.80566384106264,0.016608637339913912,-0.10271815020500877,110.11647189823387
63,-9.750935320233113,113.760325600555,0.023768141200378068,-0.23176160752705435,113.65041494526169
64,-13.246669861036935,116.42153434236351,0.02880502728010015,-0.3815706867176494,115.81575003647995
65,-17.048817131799296,118.61328513633705,0.03439446911858113,-0.5863850143480078,117.68182862947654
66,-21.741665492329048,120.72525627861934,0.04352777914652961,-0.9463664138278228,119.76059318952848
67,-27.541509234302797,122.7791547921903,0.05841806780847492,-1.6089217539972387,122.06534923755008
68,-33.556501596205635,124.49493363720808,0.07290929919440714,-2.446581014795357,123.8855960133284
69,-36.53666500019608,125.23397815114909,0.07471702190628092,-2.7299107992020986,124.36148456547272
70,-36.92259315833508,125.32524398515598,0.07928157643658551,-2.9272813917194918,124.66464472005754
71,-36.93267322213797,125.32761495547597,0.07960361177276809,-2.9399741809055784,124.6834351641914
72,-37.006616076570936,125.34498757815943,0.07664123548153158,-2.836232777099105,124.52741871666538
73,-38.05467175075319,125.58755969047048,0.08014940943979809,-3.0500594672482357,124.8430830690285
74,-38.400143038874376,125.66605692869499,0.08165733621535765,-3.1356533908431903,124.96328050580145
75,-36.148804383657996,125.14127883957106,0.07618254399596935,-2.753907880359715,124.3994940878925
76,-32.86060957866721,124.31291239724409,0.06989823628521208,-2.296898652805784,123.61141833027752
77,-30.156905235489827,123.56713551229895,0.06250198129015416,-1.8848663267975372,122.75280555818888
78,-27.42937962492579,122.74371979074809,0.058172078989002785,-1.5956240381605264,122.02930570356426
79,-24.899806353540047,121.90331947850176,0.05342469228912705,-1.3302644924967275,121.23937999020984
80,-23.01073184906272,121.21800871646448,0.048333471589160126,-1.1121885540724552,120.46178421285072
81,-21.94435957228416,120.8058583036402,0.04664179256218404,-1.0235242670804552,120.1009814395426
82,-20.74975140359311,120.31965804532648,0.04518956252047701,-0.9376721883370264,119.72051034883052
83,-19.567292970081326,119.81001503679957,0.04553215393826804,-0.8909409956689329,119.49848942977488
84,-19.535219677956775,119.79576607327608,0.044653412594300335,-0.8723142244000988,119.4067295436062
85,-19.80714029810042,119.91583564251356,0.045358297166501416,-0.8984181556598243,119.5347851977077
86,-19.942159151949454,119.9748436446807,0.04600343233693138,-0.9174077691990236,119.62562413696527
87,-9.725189418939408,113.73736146466813,0.028721531138671708,-0.2793223307255488,114.46105657230578
88,-20.32786905343528,120.14123717562485,0.045547350392837416,-0.9258805745165328,119.66554972455904
89,-20.451342050058887,120.1938363343807,0.04660377635099167,-0.9531097709785756,119.79142921818688
90,-7.498530651035253,111.47892350744877,0.01925816079358356,-0.14440790899325168,111.59590979508309
91,-19.77702050609514,119.90261736356287,0.04338097314854394,-0.8579463955331162,119.3346015398923
92,-18.940202493919056,119.52709244334059,0.0415482354378014,-0.7869319924569822,118.95937201765848
93,-18.576999017735947,119.3589112494077,0.04068472812963364,-0.7558001545010581,118.78406976359707
94,-5.884443860210012,109.37350856419205,0.019857670941064498,-0.11685134984721778,110.6763373365432
95,-18.318839418541764,119.23735920033388,0.038722063066757066,-0.7093432552745693,118.50856443641402
96,-17.977667013547034,119.07406672801004,0.04257626755332922,-0.7654219607534395,118.83900918428353
97,-4.482481177270528,107.00976957789801,0.02037697135205008,-0.09133939053534527,109.60658109438492
98,-17.475511266995458,118.827997894888,0.043559992508448886,-0.7612331398716361,118.81517686801128
99,-16.334810557134915,118.24168212898192,0.04034014549756648,-0.6589486345500075,118.1885156239231
100,-14.638585642474935,117.28938244447187,0.03553044950541562,-0.5201155280006577,117.16099819789702
101,-2.1022537016979186,100.43310260409298,0.016388335641011054,-0.03445243926598342,105.37219975801081
102,-12.923892862629144,116.20726706904905,0.031119528624174112,-0.4021854538743472,116.04426359109198
103,-11.30989158524608,115.04856892412417,0.03145590582255409,-0.3557628845687976,115.51160637767708
104,1.5791678079549456,97.94796572927478,0.0015775397806692124,0.0024912000374011267,93.96408601744238
105,5.000826130999485,107.96023519143036,0.009123129882311787,0.04562318631196704,106.59185613018265
106,7.159583412154461,111.07715515001156,0.01056794310272835,0.07566207013888604,108.78878219557778
107,8.520594909481588,112.58879845361608,0.013484677728797578,0.11489747641199237,110.60310490025257
108,10.83505980319751,114.6760263410037,0.016369494649893568,0.1773644534797185,112.48866585030794
109,13.102550470197455,116.32651691177612,0.022951059643162356,0.3007174173190468,114.78158582827787
110,15.222916724625973,117.62935751918337,0.022345054348988924,0.3401569015618999,115.31679286938045
111,14.952790394818294,117.47384499677312,0.030732527383918292,0.4595370402747437,116.62320522770231
112,11.853071425110102,115.45601811497326,0.028014753318018396,0.3320608720353122,115.21217704082909
113,9.135214206384262,113.1937747933103,0.018352080221404776,0.16765018395528056,112.24404034297613
114,5.939880862410064,109.45495477315643,0.013816156480572772,0.08206632347101699,109.14164977690157
115,-13.730821737190125,116.73333066430064,0.037559597672952805,-0.515724140167896,117.124174604669
116,1.796054487946094,99.06579024621206,0.002342005680986859,0.004206369814131695,96.23907452177305
117,-11.814935691523715,115.42802732908028,0.032873825168621806,-0.3884021303016604,115.89281603253781
118,-3.0227606247208314,103.58747521367692,0.014267567732758838,-0.04312744195312087,106.34753699310095
119,-8.332991657633103,112.39541902757591,0.023938859986060382,-0.199482320557088,112.9990441167825
120,-9.784212824321004,113.78991790314551,0.028574273316053226,-0.27957677142458137,114.46501085309707
121,-14.311124445055613,117.09287525122066,0.030776297338036333,-0.4404434211626717,116.43890127379134
122,-7.9676702709984975,112.00602715113544,0.02248149922434095,-0.17912517301725714,112.53156622891257
123,-19.524069212959148,119.79080685800292,0.04399527429313821,-0.8589667803423527,119.33976368263164
124,-25.457879809764567,122.09584472251429,0.05845001161515029,-1.488013370577839,121.72606833590294
125,-5.5521151964203455,108.86856945413862,0.013761660947182008,-0.07640632687283364,108.83129322086063
126,-33.34778368275147,124.44073960059582,0.07588830254428558,-2.530706697298033,124.03241814409063
127,-1.3110194069886347,96.33158249848834,0.004022296368987099,-0.005273308600402006,97.22083187513907
128,-42.051718744172824,126.45507510764182,0.09502552016755317,-3.9959864476046687,126.01624006645916
129,3.082122854219051,103.7563990030902,0.002965894801604918,0.009141252151235995,99.6100568863603
130,-49.13540457788622,127.80729081385445,0.11047011337387858,-5.427993714390484,127.34639336075556
131,-51.20916252063762,128.16635355473036,0.114423422853406,-5.859527657067709,127.67862608475949
132,-47.13503069790022,127.44627597197993,0.10464534738378006,-4.932461661326906,126.93063718285327
133,6.760139446851099,110.57851317825524,0.00966834622136048,0.06535936867683274,108.15307848581092
134,-41.275987493325374,126.29334953051548,0.0866766594098749,-3.5776647097652194,125.53599637091635
135,-37.171250906860216,125.38354361576731,0.07981563072189601,-2.966846835852898,124.72295126343504
136,-33.76077471266035,124.5476481642602,0.07769898407980236,-2.6231778969207906,124.18827744281248
137,10.806977978281793,114.65348541658554,0.016580697120616602,0.17918722864706402,112.53307052615378
138,-29.32450584966864,123.32401413686537,0.06951670854436998,-2.0385431263590874,123.09319903593749
139,-25.172483486137928,121.9979213791091,0.0626259561853999,-1.5764508478805768,121.97680434438813
140,15.019982217927465,117.51278845691351,0.020717665896370363,0.3111789733604451,114.9301024364527
141,-21.798117542959517,120.74777988908316,0.056918605278212915,-1.240718448235801,120.9367323979818
142,-18.991556434106318,119.55061125407222,0.05291486132801992,-1.004935575114,120.02138220692505
143,-17.938024858027347,119.05489251697612,0.050307992119712715,-0.9024260132008504,119.554116057292
144,18.650219655246477,119.39307910934609,0.02806439548169237,0.5234071402252695,117.18839642910822
145,-15.806994939383006,117.95638637177812,0.04812471328011725,-0.7607070992780713,118.81217469315231
146,-17.687797856051475,118.93287541252629,0.049283777637072035,-0.8717214964271204,119.40377755707551
147,-17.240989847050518,118.7106440088044,0.048902985341953815,-0.8431358737710857,119.25897568069591
148,22.31098454716266,120.94977479492113,0.03389843905881662,0.7563075500141928,118.78698435862373
149,-17.06279755475407,118.62040484725037,0.04743592130603247,-0.8093895220680773,119.08157577943527
150,-14.855492267597587,117.4171410392805,0.04019705626325276,-0.5971470584989363,117.76081297343408
151,-17.46653214156686,118.82353383459689,0.04996634322634464,-0.87273873995951,119.4088425427224
152,25.121399702286,121.98027675780376,0.05052076708875575,1.269152383302729,121.03513769655287
153,-18.0806341808493,119.12367327368105,0.05394675292922102,-0.9753915049579056,119.8917896884221
154,-13.149804790024064,116.35778620141895,0.043151945728823186,-0.5674396626437377,117.5391968864224
155,-17.396444743368193,118.7886101258203,0.05665815100689998,-0.9856503932529462,119.93722899520228
156,26.638487041869663,122.4895911873565,0.05624988511453921,1.4984118357303102,121.75631194807691
157,-17.164202231302625,118.67187254303978,0.055920796941109074,-0.9598358676328054,119.82196974835782
158,-18.702622160912146,119.41745008930091,0.06338255578657481,-1.185419992469244,120.73872247473486
159,26.97083484184986,122.59728787866085,0.04928040575475734,1.329133684550908,121.23568664571708
160,-11.478625831892714,115.17719807557712,0.031700576476509916,-0.3638790560291573,115.60957059398469
161,-19.68986508774105,119.86425489516041,0.06580555148553913,-1.2957024307746634,121.12505273516744
162,-19.446195170268766,119.7560928907501,0.06071455178260976,-1.1806670236400187,120.72127433442863
163,26.780085031306953,122.53563911945507,0.05071347817744254,1.3581112578252408,121.32935349237827
164,-8.927480524624118,112.99397831569416,0.026507935332006127,-0.2366490764244802,113.74104813876758
165,-19.087565076551982,119.59441070146299,0.05780510142176354,-1.103358635144599,120.42716698250335
166,-18.173077637475213,119.16796972565895,0.05482169482354493,-0.9962789162462552,119.98380939657808
167,26.73643941913906,122.52147149334637,0.04735702698502564,1.2661582830556717,121.02488000437084
168,-16.70878833819006,118.43829923764956,0.0551506908615238,-0.9215012203101541,119.64495914675672
169,-5.525240812174162,108.82642430805085,0.02487110168306117,-0.13741882606298306,111.38046234144156
170,26.04396295093466,122.29354146403871,0.04627674956128658,1.2052299510638294,120.81069915749512
171,-15.026926386650302,117.51680326489408,0.05437746299901392,-0.8171261335789827,119.12289100460444
172,-1.984584054036532,99.93279003700803,0.0216798883490128,-0.04302556071074319,106.33726538778679
173,26.70626636011002,122.51166361087505,0.04903976905086438,1.3096691345106641,121.17161592445429
174,25.332028447068296,122.05279942781135,0.052147429511421706,1.3210001678248235,121.2090287278893
175,2.14698873081943,100.61599538479996,0.014706962785680844,0.031575683365437514,104.99352758392122
176,-16.00697145742015,118.06558349743715,0.05638780619943873,-0.9025980043809548,119.55494368972185
177,19.97052795252239,119.98719101241322,0.04577842707874424,0.9142193575985698,119.61050412763022
178,6.845466721832054,110.68746135761437,0.007018464807458713,0.04804466727780803,106.81645190124284
179,13.278870884343634,116.44262304888643,0.02305145252842067,0.3060972618214746,114.85859444654041
180,-15.18062655554968,117.60519402120649,0.058092964628087884,-0.8818876015237591,119.45413236890775
181,11.899433593032882,115.48992588049593,0.005536859770643332,0.0658854951547056,108.18789814174706
182,4.589447907084832,107.21460898122272,0.0014402969292746093,0.0066101677276400655,98.2021247949538
183,17.346344713267168,118.76355953887784,0.02568453452039421,0.44553278959056825,116.48879672041168
184,-14.633327029514476,117.28626165541876,0.059285373395823626,-0.8675422569679643,119.38290637954034
185,-5.227481313064344,108.34524986669136,0.019013898685955155,-0.09939480006932927,109.973636644751
186,-15.682173169887392,117.88752499130823,0.03813032282158702,-0.5979663255118368,117.76676727372733
187,22.425551100910525,120.99426257668938,0.037129840990985485,0.8326571465120273,119.2046621385697
188,-26.4736608833482,122.435680115243,0.05963071900094974,-1.5786434330613714,121.9828404733505
189,-12.658750169488485,116.02721666276524,0.04014084472385093,-0.5081329249514589,117.05977336342028
190,-31.99905190190475,124.08214230319916,0.09178191540979697,-2.936934274854325,124.67894227630232
191,-35.91503862733953,125.0849268439591,0.09888681205188732,-3.5515236745779974,125.5041471403956
192,27.19403616950149,122.66887350368069,0.05078214416562332,1.3809714652047995,121.40184704913081
193,-38.74542078183731,125.74380772204636,0.11172673493314278,-4.328899357565419,126.36377489032823
194,-9.454840340578812,113.49248407706592,0.03845202775875123,-0.3635577832304974,115.6057344667724
195,-37.51207035254629,125.46282077142686,0.11322041591427025,-4.247132207120656,126.28095780164051
196,32.04383397428319,124.09428954473951,0.056920564115614525,1.8239531062432928,122.6101366844329
197,-33.20937436290842,124.40461396526686,0.09153458084153954,-3.0398061623185915,124.82845891069485
