nodenumber,sound-pressure,spl-db,particle-velocity,sound-intensity,sil-db
1,-7.253036512454855,111.18979736163506,0.013149898745666631,-0.0953766957374044,109.7944227251314
2,-7.55640187895915,111.54570103352958,0.015566923862422756,-0.11762993272362532,110.70517848632838
3,-8.149285729625264,112.20179099213013,0.020479036111680667,-0.1668895167413997,112.22429057084557
4,-8.987448587038669,113.05212846679669,0.02180441343568873,-0.19596604472378767,112.92180827139148
5,-9.741851156533812,113.75222988277216,0.02246532593011352,-0.21885386139418544,113.40154213582869
6,-10.535635903477667,114.43261515904705,0.02764321911070056,-0.2912388917503968,114.64249369764522
7,-11.516980612970656,115.206172802142,0.030042215714956914,-0.34599561595984113,115.39070595970487
8,-12.355437121834257,115.81656238418141,0.03008363897708932,-0.3716965097773893,115.70188483098585
9,-13.337637239674224,116.48097811063101,0.033637984101630984,-0.4486512294214829,116.51908862168878
10,-14.507625220940099,117.21132664305759,0.03992989653846735,-0.5792879740909976,117.62894512721168
11,-15.812392485939199,117.95935179887691,0.04418695902097625,-0.6987015387997881,118.44291699732834
12,-16.720725652441615,118.44450251051794,0.04261446883157305,-0.7125448421572571,118.52812200734787
13,-17.21038895312813,118.69521379575671,0.0402073216549752,-0.6919836444456547,118.40095829701058
14,-17.44233157824783,118.8114908498965,0.0390937001515681,-0.6818852806642483,118.3371131576317
15,-17.93087972761714,119.05143203689006,0.03787537923034279,-0.6791388696171647,118.31958587449756
16,-18.07901358504023,119.12289470877656,0.03741973820535805,-0.676511955363317,118.30275475881815
17,-17.886492994017317,119.02990402199059,0.039089641623149866,-0.6991766010311179,118.44586885568695
18,-18.41930814695661,119.28486635681216,0.038748389734848836,-0.7137185307245512,118.53526972764976
19,-18.830070891912328,119.47643918796537,0.042302948552332964,-0.7965675201773497,119.01222594195671
20,-19.113661193216103,119.60627775635722,0.04479064623137674,-0.8561132366917367,119.32531211894295
21,-19.460679052848718,119.7625598924789,0.0429648886799896,-0.8361259091426506,119.22271681181256
22,-21.01862757129129,120.43148718671708,0.0498140208853215,-1.0470223528170983,120.1995595350453
23,-22.41331893479219,120.98952350777486,0.05444510669792635,-1.2202955408594136,120.86465024298144
24,-23.74483566421259,121.49078345105913,0.05511096341376742,-1.3086007695563395,121.1680717136046
25,-25.066332733797026,121.9612160917914,0.05959250354339929,-1.4937655222588249,121.74282431226992
26,-25.667910039483104,122.16721025697741,0.05750593658427761,-1.4760572069814581,121.691031895974
27,-26.079915894515576,122.3055238167166,0.059562348067856874,-1.5533810280895701,121.91277996681576
28,-27.432948498521,122.74484985005415,0.06921435059223313,-1.8987537151553082,122.7846863662456
29,-29.29928996310628,123.31654200312592,0.07201637256042659,-2.1100285817390287,123.24288338144837
30,-29.976230981657864,123.51494061776064,0.07144717972880699,-2.141717162538741,123.30762116888373
31,-31.048800160511746,123.82029652883251,0.07053775966301146,-2.190112803547049,123.40466484107866
32,-31.853094616541057,124.0424327194255,0.06785441045656171,-2.1613729564224733,123.34729713177003
33,-31.8268848201551,124.03528273559343,0.061898815732774885,-1.970046478831031,122.94476472487341
34,-31.014509268599795,123.81069836412665,0.056448629613157664,-1.7507265463370352,122.43218317019381
35,-29.41656935653009,123.351240540612,0.05477569859419873,-1.6113131367486346,122.07179947835053
36,-27.75718406440865,122.84690819318372,0.05189874038285325,-1.4405628895178155,121.5853222268194
37,-26.006975938784308,122.28119720410774,0.04904543560115826,-1.2755234635865182,121.05688451979462
38,-21.69283040818118,120.70572450686424,0.036491562175569925,-0.7916052696042375,118.98508676580877
39,-18.238288596810893,119.1990817579805,0.026958694809593453,-0.4916804561307132,116.91682945806379
40,-16.13263303070562,118.13350518699065,0.01708942076578524,-0.2756973539217334,114.40432597869629
41,-13.892703316247209,116.83513531262683,0.01338911419145461,-0.186010991129234,112.6953860682946
42,-12.235862387446106,115.7320917662964,0.012443445140547738,-0.15225628236547706,111.82575221438705
43,-9.371974224923179,113.41602179706473,0.007337411340017751,-0.06876602995630543,108.37373952103563
44,-8.186746934399707,112.241627403752,0.010339634602246406,-0.0846479718827539,109.27616557120909
45,-7.467578527212026,111.4429960513948,0.007876020943228923,-0.05881480487552852,107.69486660539398
46,-6.358857975865249,110.04698259052276,0.0058908752841375644,-0.03745923928536561,105.73558953564509
47,-6.27621242054738,109.93335276688705,0.0061350561436483994,-0.0385049155695216,105.85516175442196
48,-6.0644248490571036,109.63519245878472,0.008630274859456222,-0.05233765331187912,107.18814246073264
49,-6.5023259980080175,110.24077487311804,0.013274989477565668,-0.08631830920325813,109.3610292482955
50,-6.913194307271624,110.77297535973699,0.02102943694922033,-0.1453805838024775,111.62506408514034
51,-5.472801287760376,108.74359367885654,0.007828900023980623,-0.042846014132988386,106.31910426712808
52,-4.72334183647763,107.46438763396787,0.00661149514257886,-0.031228351608611364,104.9454906056136
53,-4.490745743387379,107.02576942502778,0.00945464754937575,-0.042458418237587066,106.27963810755945
54,-4.118019834684674,106.27316876855957,0.013531899479630738,-0.055724630458078586,107.46047197106527
55,-2.529642824709299,102.04058418447852,0.00770544639271975,-0.01949202717852567,102.89857008264124
56,-1.1993986935412977,95.55867151555643,0.0040292916630164655,-0.00483272715651879,96.84192276669359
57,-1.3741941369953563,96.74036191251524,0.009267052943243924,-0.012734729821831364,101.04989735469051
58,-1.8399666612094732,99.27559916665098,0.008585877908330986,-0.01579772910854394,101.98594662491784
59,-1.7896561553352512,99.03479205620759,0.006282801752718115,-0.011244054829503079,100.50922954695324
60,-2.176404661790002,100.73419303631873,0.00535659245468878,-0.011658112789693812,100.66628252707966
61,-3.4635034261154938,104.76971251830872,0.010402762879380134,-0.036030004873800175,105.56664320869845
62,-5.833052380679875,109.2973176147655,0.016303437339900032,-0.09509880398876899,109.7817505506208
63,-9.352495320228627,113.39795007790893,0.023524041200460036,-0.22000848524016786,113.42439430921837
64,-12.887289861027966,116.18263202238302,0.028286227280091225,-0.3645328100334523,115.61736623395296
65,-16.697257131789232,118.43230279067352,0.03360106911867433,-0.5610456909775278,117.48998231187322
66,-21.429165492329048,120.59950526291547,0.04285637914654217,-0.9183764411332516,119.6302073435588
67,-27.275879234308377,122.69497526492813,0.058479067808491436,-1.595067991279343,122.02779200000154
68,-33.35337159621122,124.4421949277046,0.07327549919443754,-2.443984953529952,123.88098527831144
69,-36.37260500020057,125.1948882121305,0.07493062190627597,-2.7254219130163517,124.354337434241
70,-36.70384315833508,125.27363089496298,0.07980037643670812,-2.928980500709033,124.66716480434532
71,-36.68267322213797,125.26861962739986,0.08033601177277205,-2.9469396678304256,124.69371244707564
72,-36.756616076570936,125.28611052896751,0.07719053548157717,-2.8372628774412587,124.52899575814585
73,-37.74217175075319,125.51593781900164,0.08036300943967943,-3.033074504679781,124.81883078485373
74,-37.99388303888554,125.57367371574188,0.08171833621543101,-3.1047969083014104,124.92033197269863
75,-35.640984383659095,125.01839389664751,0.07599944399595415,-2.7086949966265754,124.32760105535408
76,-32.305919578662724,124.16504223910091,0.06968463628521704,-2.251226255698584,123.52419145228608
77,-29.594405235489827,123.40359241262077,0.0623493812901188,-1.845192856081844,122.66041764508611
78,-26.85906962491572,122.56121938683431,0.05786687898904575,-1.554250531743352,121.91521024621927
79,-24.23574635354453,121.66852805890885,0.05278379228923313,-1.2792546015000337,121.06956987811424
80,-22.268551849061623,120.9332395918278,0.04760107158926985,-1.0600069307565498,120.25308704868057
81,-21.19435957228416,120.50380604816428,0.04615349256226864,-0.9781937168814642,119.9042486894072
82,-19.99975140359311,119.99989203528128,0.0448538625203696,-0.8970660998983343,119.52824445010036
83,-18.71573297008581,119.42353689059456,0.04522695393825416,-0.8464555929587355,119.2760417893774
84,-18.621149677957877,119.37952990682264,0.04416511259427125,-0.8224051721617873,119.1508583296718
85,-18.893080298104906,119.50545549440088,0.04493099716648885,-0.8488849373403978,119.28848827505828
86,-18.98903915194387,119.54945988534064,0.04533203233700078,-0.8608117368844934,119.34908179824892
87,-8.904879418943892,112.97196094778853,0.028477431138583142,-0.25358809045036096,114.04128853416545
88,-19.26536905343528,119.67494674491311,0.04432665039280437,-0.8539692787199781,119.31442247360695
89,-19.3966520500544,119.73393559082695,0.04562717635087665,-0.8850144637044253,119.46950368387873
90,-6.631350651034154,110.41143994757816,0.01919706079354455,-0.1273024415912139,111.04836733264202
91,-18.831710506085074,119.47719547230636,0.042587473148500976,-0.8019949655182418,119.04171642031658
92,-17.97146249390789,119.07106850390193,0.0414262354378252,-0.7444900364346736,118.71858889931856
93,-17.55355901774601,118.86670376209005,0.04068472812963364,-0.7141617763444754,118.53796601993828
94,-5.025063860215597,108.00223179250332,0.01964397094116066,-0.09871220844755177,109.94370868308123
95,-17.34227941854624,118.76152367251888,0.0390577630667508,-0.6773506405669678,118.30813545850931
96,-17.0479770135571,118.6128571093322,0.042911967553266095,-0.7315622364545885,118.6425127892209
97,-3.677791177280597,105.29114141929466,0.019034171352018348,-0.07000370746530016,108.45121041286885
98,-16.56145126699994,118.36136790675278,0.042064592508438636,-0.6966506988947172,118.43015077140598
99,-15.405120557130429,117.73270211393292,0.03808184549751559,-0.5866554209272423,117.68383088078487
100,-13.747965642469351,116.74416884915094,0.034187749505406366,-0.4700120055936754,116.72108951332513
101,-1.3053837017068872,96.29416380742113,0.015259235640996847,-0.019919157506262133,102.99270965708209
102,-12.072322862630243,115.61521692091749,0.030478628624166507,-0.3679478451611419,115.6578626388018
103,-10.466131585257244,114.37512389867612,0.030906605822565325,-0.3234726033926464,115.0983750386332
104,2.524487807953846,102.02286563883669,0.000467160219386642,0.0011793402782026216,90.71639131323963
105,6.055516130989418,109.6224233939822,0.010923629882256591,0.06614821696096282,108.20518142182608
106,8.261153412153362,112.32021383110134,0.011575043102709516,0.09562320682377094,109.80563304121485
107,9.669034909471518,113.6870626513013,0.014003477728806502,0.13540011501383706,111.31619033254988
108,11.967869803193025,115.53973720504524,0.017468194650007263,0.20905707926811987,113.20264878583514
109,14.141610470192974,116.98937749586882,0.025300959643118404,0.35779631579505305,115.53635864352884
110,16.035416724625975,118.081005101793,0.024511754348907292,0.3930561956363913,115.9445464632981
111,15.92935039481381,118.02336139596312,0.03235002738387038,0.5153149214794932,117.1207271809155
112,13.21245142511907,116.39906815987352,0.029265953318088126,0.3866749866250416,115.87346079179169
113,10.455524206379778,114.3663163233015,0.02045778022142031,0.21389681631385749,113.30204320487313
114,7.299250862415647,111.2449658836117,0.015647256480576743,0.11421325036028862,110.57716491164982
115,-12.76208173717896,116.0978305230576,0.03688819767296536,-0.4707701938395986,116.72808958290415
116,3.2569944879360264,104.23574055822668,0.003410105680984543,0.011106695406245986,100.45584861792808
117,-10.963365691524816,114.77827809827684,0.030981725168487625,-0.3396639827764481,115.31049497677391
118,-1.561820624730899,97.85202315945513,0.01316886773281567,-0.020567409229464748,103.13179589302428
119,-6.973611657624133,110.84855526628401,0.02238245998603361,-0.15608658388490967,111.93365575739227
120,-8.940462824321001,113.0066001200122,0.02744507331613022,-0.24537165769362654,113.89824396947948
121,-12.982994445061195,116.24689751225121,0.029830297338037326,-0.3872865846342624,115.88032453556649
122,-7.0614202709984975,110.95724128572495,0.021749099224336987,-0.15357953013869088,111.86333334574176
123,-18.125629212954664,119.14526191872149,0.04378167429314317,-0.793570394559862,118.99585457383121
124,-24.05161980977573,121.60228669115295,0.05765661161512981,-1.3867349020870017,121.41993446246565
125,-4.450555196410278,106.9476839184614,0.012266260947228602,-0.05459167139921271,107.37126391033256
126,-31.925913682760445,124.06226678911176,0.07533900254429682,-2.4052664921744893,123.81163201154386
127,0.024910593012464236,61.9070814130229,0.0025879963689590113,6.446852426487314e-05,78.09347728983283
128,-40.56733874416386,126.14293045691069,0.09472042016756176,-3.8425553709270086,125.84620134366915
129,4.644622854219051,107.31840918321082,0.0047664948015722075,0.022138570689898576,103.45149578533324
130,-47.61196457788174,127.5337221231547,0.1098598133738733,-5.230641542889552,127.1855495874294
131,-49.6076025206421,127.890364858359,0.11384352285341492,-5.647504231261842,127.51856564977614
132,-45.55691069790918,127.15048540788162,0.10437064738374603,-4.754804262344287,126.77132643348412
133,8.447639446851099,112.51410747653648,0.011529946221401131,0.09740082851997997,109.88562651130415
134,-39.72911749333434,125.96157844947784,0.08649355940980286,-3.436312784208752,125.36092687834812
135,-35.53844090686471,124.99336750917429,0.07957143072189865,-2.8278445885848735,124.51455538019259
136,-31.97951471267152,124.07683746804037,0.07739378407978847,-2.4750156566489183,123.93577950572508
137,12.455417978271726,115.88656620969655,0.01804559712053333,0.22476545480373933,113.51729563387345
138,-27.41044584965857,122.73772208059805,0.06893690854434452,-1.8895913986976207,122.763679033925
139,-23.172483486137928,121.27885171334124,0.061863056185472935,-1.433520647859895,121.56403952732128
140,16.551232217927467,118.35600672632728,0.022213065896380613,0.36765361192312057,115.65438836948788
141,-19.75124754296849,119.89129072791016,0.05572850527818218,-1.1007075029490019,120.41671926844688
142,-16.850926434097346,118.51187573882721,0.051297361328067836,-0.8644080620025812,119.36718808728216
143,-15.766154858021764,117.93391584605413,0.04844649211969454,-0.7638148970870352,118.82988124395511
144,20.118969655246477,120.05151479879295,0.03050589548166727,0.6137471855017842,117.87989513564676
145,-14.63512493937742,117.28732877346687,0.04391331328014303,-0.6426768263569149,118.0799264040089
146,-15.554987856041407,117.81679361444316,0.04739167763705154,-0.7371769701217659,118.6757175912264
147,-15.092559847049415,117.5546582197574,0.046644685341902914,-0.7039877050694583,118.47565074387686
148,23.709414547163764,121.47781668962843,0.03649243905886124,0.8652143654836516,119.37123721583612
149,-14.8909175547451,117.43782926901072,0.045055621306119065,-0.6709195422472358,118.26670441997395
150,-13.84768226760207,116.80694189029155,0.038732256263244835,-0.5363519782407546,117.29449886780857
151,-15.364962141567958,117.7100299770345,0.04828784322631918,-0.741940883070363,118.7036930261172
152,26.82451970227703,122.55003917849736,0.05189406708865363,1.3920334250508752,121.43649663536665
153,-16.088454180848206,118.10968644666409,0.05321435292916021,-0.8561366788642795,119.32543103623522
154,-12.134184790033032,115.65961217625127,0.041961745728769984,-0.5091715767852742,117.06864152267862
155,-15.443314743359224,117.75421054070965,0.0563835510070021,-0.8707489245493824,119.39892946739164
156,28.982237041869663,123.2220381700474,0.057287485114557064,1.6603194731226727,122.20191661573169
157,-15.281392231307109,117.66265854694599,0.05466949694118739,-0.8354260258465287,119.21908000622032
158,-16.858872160912142,118.5159704359397,0.06118535578667661,-1.031516091327507,120.13476007219722
159,29.41614484184538,123.35111519240219,0.05147770575473487,1.5142756486071784,121.80204938422004
160,-10.213005831901684,114.16247168475313,0.03038827647657172,-0.3103556448766677,114.91859648920685
161,-17.83830508774554,119.00647183414995,0.062082351485571514,-1.1074439263642772,120.44321745651686
162,-17.688375170269865,118.93315890772426,0.05717455178267983,-1.0113249221240626,120.0489070971032
163,29.155085031306953,123.27368633444509,0.052636078177386025,1.5346093349762098,121.85997835671259
164,-7.388420524614048,111.35043220844581,0.02498203533201604,-0.18457778259370064,112.66179424329935
165,-17.423505076556467,118.80211061138546,0.05664540142174701,-0.986961439235388,119.94300185035965
166,-16.579317637486383,118.37073312925315,0.05433349482348149,-0.9008122690332218,119.54634292623992
167,29.041129419143548,123.23967013097557,0.048730326985037216,1.4151837326096486,121.50812827760294
168,-15.20878833819006,117.6212924032847,0.05344169086146167,-0.8127833647469566,119.0997480631714
169,-3.704930812178645,105.35500212968269,0.025756101683043653,-0.0954245747271147,109.79660233131705
170,28.309592950943628,123.0180725849868,0.04893184956131336,1.3852407434175904,121.41525256759323
171,-13.534736386645818,116.6083961171627,0.05181396299894914,-0.7012883303381969,118.45896612160021
172,0.10135594596795272,74.09638471322606,0.02207658834902304,0.0022375934958603137,93.4978119097695
173,28.979706360114502,123.22127969919022,0.05264086905083332,1.5255169276343892,121.83417031078669
174,28.230468447072784,122.9937617816395,0.05361232951145212,1.5135011766471178,121.79982762927976
175,4.24073873081943,106.52823042033485,0.013791362785639194,0.058485566315841876,107.67048699538263
176,-14.342901457421249,117.11214037902693,0.05119980619946318,-0.7343537749579659,118.65905331711019
177,23.103337952532453,121.25289470589502,0.04702962707875713,1.0865413681820977,120.36046265982081
178,8.665786721830955,112.73556001038574,0.003631064807507301,0.03146603319500444,104.97841996484657
179,15.950740884334664,118.03501728850979,0.02579805252838696,0.4114980512007552,116.14367782793094
180,-13.782186555545195,116.76576257120844,0.058276064628103086,-0.8031715944275253,119.04808340486295
181,13.54786359303398,116.61681639253942,0.010938459770727604,0.14819276089170733,111.70826989192751
182,7.425387907089317,111.39378301487687,0.0025999969291774505,0.0193059857563836,102.85691981439385
183,19.276034713271656,119.67975408131329,0.028400634520437507,0.5474516168948947,117.38345742792394
184,-13.258327029514476,116.42917462889778,0.055836873395833216,-0.7403035277875532,118.69409818941864
185,-2.266541313059861,101.0866728768771,0.018220398685912187,-0.041297286362041566,106.15921515174307
186,-12.705603169888489,116.0593058272798,0.036482422821507036,-0.4635311870461521,116.66078959422043
187,24.90993110090494,121.90685061293169,0.038198040991005655,0.9515105692754936,119.7841361674551
188,-23.3799108833482,121.35625711550036,0.05837951900093685,-1.3649079516546367,121.35103363877577
189,-10.799380169482903,114.6473766840553,0.03763844472382516,-0.4064718735606558,116.0903049930274
190,-28.92092190189578,123.20364274058433,0.09040861540967172,-2.6147005055216472,124.17421950852152
191,-32.87597862732946,124.3169738755349,0.09763561205187443,-3.2098662950836543,125.06486942524269
192,30.12372616949142,123.5575739092453,0.0513314441654984,1.5462943679260115,121.89292174056091
193,-35.65166078184848,125.02099539970249,0.11117733493324522,-3.9636566316700113,125.98096024867226
194,-7.384520340579911,111.34584590850938,0.03784162775872346,-0.2794422699049468,114.46292100410828
195,-34.238630352541804,124.66972775224876,0.11239641591430427,-3.8482993374404106,125.85268845991156
196,35.26259397427202,124.9256852177823,0.05682906411561816,2.003940213846916,123.01884760516717
197,-29.83437436290842,123.4737387861394,0.08942888084158085,-2.668054709883652,124.26194730775607
