nodenumber,sound-pressure,spl-db,particle-velocity,sound-intensity,sil-db
1,-3.15147651245934,103.94968158139928,0.0048795987457879155,-0.015377940837576673,101.86898185741809
2,-4.712661878947984,107.44472571461066,0.008547823862443238,-0.04028300366449816,106.05121845850854
3,-5.461785729625262,108.72609325483896,0.014070336111615234,-0.07684916098545108,108.85639130373464
4,-6.276518587037573,109.93377647203032,0.015304113435718138,-0.09605655243741633,109.82526995333605
5,-6.944971156539396,110.81280901452341,0.01758252593015186,-0.12211013544401067,110.86751712959801
6,-7.840325903482152,111.86608239944536,0.021509219110726008,-0.16863928775749848,112.26958759307823
7,-8.829480612970656,112.89810323289215,0.023358915714879917,-0.20624709344454775,113.14387836931593
8,-9.62105712183984,113.6438559494282,0.02373603897711973,-0.22836578684508585,113.58631039602842
9,-10.673567239675323,114.54559189337532,0.026618884101651474,-0.2841184493041014,114.53499435661745
10,-11.874815220944585,115.47193729619785,0.032086796538465016,-0.3810247799263165,115.80953220912649
11,-13.171762485944784,116.37227790441791,0.034634959020934275,-0.456203453934177,116.5915856901357
12,-13.939465652452784,116.86432260838913,0.03550386883148349,-0.494904960105653,116.94521806479817
13,-14.421328953132615,117.15950575266643,0.0373692216550694,-0.5389138382102826,117.31519335537395
14,-14.879831578247831,117.43136039767624,0.038697000151671546,-0.5758048448403034,117.60275314725037
15,-15.540249727622724,117.80855995704417,0.039126679230378165,-0.6080383662526658,117.83930983427557
16,-15.938383585045813,118.02828558012921,0.03873203820529625,-0.617326081946661,117.90514626240109
17,-16.136492994017313,118.1355831617995,0.03878454162315848,-0.6258464841782697,117.96467816835717
18,-16.67712814695551,118.42182540446659,0.0369478897348472,-0.6161846918676287,117.89710904756645
19,-16.861320891912328,118.51723195939691,0.0365656485524255,-0.6165451338633359,117.89964874395369
20,-17.293351193220587,118.73698331101494,0.03932794623136715,-0.6801119858871282,118.32580428659989
21,-17.835679052848718,119.005193061964,0.038631388679959855,-0.689017049861617,118.38229968742462
22,-19.354567571295775,119.71506953782242,0.04493122088524615,-0.8696243506843125,119.39331692094524
23,-20.803948934801163,120.34231566849044,0.05151540669794485,-1.0717238902995585,120.30082911882273
24,-22.244835664212584,120.92398412082304,0.05285266341377337,-1.1756988120553298,120.70296079379976
25,-23.73040273379593,121.4855022624292,0.057547803543343434,-1.365632554528908,121.35333861126409
26,-24.894470039478623,121.90145779324206,0.05799423658430669,-1.4437357851104575,121.59487721233809
27,-25.978355894520067,122.27163333052016,0.061729048067832075,-1.6036191797360781,122.05101241893608
28,-27.495448498521,122.76461625018015,0.07052665059222818,-1.9391618891317957,122.87614067264242
29,-29.29928996310628,123.31654200312592,0.07226057256042395,-2.1171834683479425,123.25758494220942
30,-29.83561098165228,123.47409880412407,0.07248477972882482,-2.1626276900799732,123.34981759355328
31,-31.25192016051733,123.87693420960105,0.07383365966302335,-2.3074436369476152,123.63131101480577
32,-32.485904616551124,124.2132993831556,0.07060101045658485,-2.293537691524744,123.60505881632469
33,-32.803444820150624,124.29778914865265,0.06290581573279043,-2.0635274552571534,123.14610251545083
34,-32.139509268599795,124.12018491325928,0.05696742961316659,-1.8309052320606742,122.62665865733568
35,-30.20562935654016,123.58115786682501,0.05538599859420401,-1.672968945078381,122.23487879332822
36,-28.21812406441313,122.98996285796859,0.05144094038286085,-1.4515668377136468,121.61837037812836
37,-26.663225938784308,122.49765394300846,0.05099853560125212,-1.3597854772833204,121.3347039853143
38,-21.935020408171116,120.80216094282707,0.037376562175552415,-0.8198556541080185,119.13737396112242
39,-18.011728596815374,119.09050797335384,0.02717229480958849,-0.489419999462963,116.89681712214258
40,-15.976373030716784,118.04896393229895,0.017211520765783916,-0.2749776761800921,114.39297437447227
41,-13.423953316247209,116.53700875001915,0.013816314191444691,-0.1854695567085573,112.6827263395908
42,-11.59524238744052,115.26499671830507,0.013481045140565584,-0.15631598604088512,111.94003394489616
43,-8.114164224913111,112.1642759520944,0.005811611339936461,-0.04715636882361179,106.7354035578303
44,-6.561746934399707,110.3197896271873,0.008539134602187914,-0.05603164029833301,107.48433336408091
45,-6.1238285272120265,109.7198605178124,0.00516002094320811,-0.031599083453029336,104.99674485875856
46,-4.726037975866348,107.46934422800473,0.0018015752841051835,-0.008514313209063302,99.30149622170214
47,-4.088712420547382,106.21113139753078,0.0007924438563122749,-0.0032400750378904627,95.10555068282044
48,-3.6191148490615888,105.15144739145012,0.0009093748593613783,-0.003291132056878058,95.17345308737036
49,-2.9788859980035336,103.4604777482998,0.005218389477533947,-0.015544987346754854,101.9159037287411
50,-1.8350743072660407,99.2524731814495,0.014437636949139687,-0.026494136623001104,104.2314977152063
51,-0.04311128775589168,66.67121999957403,0.0013897000239921908,-5.991175762869691e-05,77.77512060656086
52,0.7375981635123026,91.3357966213448,0.00020279514262711015,0.00014958132477097195,81.74877375245053
53,0.6967542566126212,90.84099269844519,0.0026797475493935963,0.001867125511687229,92.71173513021942
54,0.8585401653108421,92.65461244042898,0.010998999479625128,0.009443082831491222,99.75113799185449
55,2.7984871752996696,102.91786650661308,0.002609046392763048,0.007301382869909254,98.63405122571614
56,4.363101306458701,106.77530602569222,0.0010671083369402368,0.004655901779036921,96.68003809856563
57,4.024245863009128,106.07309021200341,0.006581452943180466,0.02648538477918324,104.23006286739701
58,3.660033338790527,105.24910091366225,0.004893277908252003,0.017909560280169504,102.5308492307738
59,4.382213844670332,106.81327141837194,0.0005835982473740843,0.0025574523193680533,94.07807545559808
60,4.542345338209998,107.12500306650692,0.003005207545356825,0.013650690484005084,101.35154619567908
61,3.1302565738733388,103.89099881241356,0.004085562879367899,0.012788860061114252,101.0683183523462
62,0.9481876193312928,93.51728569378253,0.009131837339964477,0.008658695107501524,99.37452447408602
63,-2.446245320228627,101.74940024358101,0.015558941200367825,-0.03806098709911217,105.80480047380807
64,-6.176349861038034,109.79403786181915,0.02041272728013155,-0.12607614530004774,111.0063292206402
65,-9.962887131798198,113.94710429236893,0.02636836911869977,-0.2627050853791989,114.19468479831171
66,-14.858845492330149,117.41910142219852,0.03669187914653094,-0.5451989630615537,117.36555021159201
67,-21.07274923431396,120.45382406836802,0.0542981678085539,-1.1442116741123551,120.5850637445282
68,-27.595561596201147,122.79618482274704,0.07046789919439789,-1.9446012527739005,122.88830561202244
69,-30.833535000201664,123.7598664573921,0.07108542190621847,-2.1918148443494894,123.40803863921064
70,-31.149153158330588,123.8483249694406,0.07580257643672894,-2.3611860632237307,123.73130211156435
71,-31.151423222137968,123.84895794989944,0.07588041177268677,-2.363782821401066,123.73607572124659
72,-31.13943607656984,123.84561495460486,0.07221623548150546,-2.248772848466854,123.51945588988478
73,-31.609361750743123,123.97571462171585,0.07395440943980702,-2.337651681045432,123.68779800123735
74,-31.282953038884443,123.88555494120196,0.07387533621533747,-2.311038673556202,123.63807213143116
75,-28.69567438364902,123.13572879987036,0.06748504399604371,-1.936528848276699,122.8702397101178
76,-25.235609578667212,122.01967608262129,0.06187213628521704,-1.561381075091826,121.93508911141774
77,-22.633465235485343,121.07442109726841,0.055788081290131686,-1.262677598434626,121.01292475579328
78,-19.945009624920203,119.9760850912131,0.05039007898903946,-1.0050306104368814,120.02179289359869
79,-16.845126353538944,118.50888554526136,0.0436285922891102,-0.7349291497370962,118.66245473286446
80,-14.565421849052653,117.24586143353642,0.03850677158925464,-0.5608673722426095,117.48860176206438
81,-13.702169572279672,116.71518684396472,0.038951392562296405,-0.5337185859650185,117.27312326733706
82,-12.976311403603175,116.24242526925887,0.0386282625204899,-0.5012523634460102,117.00056433367172
83,-11.457912970086909,115.16151047055594,0.03866575393823268,-0.4430288435470652,116.46432002036943
84,-10.808649677957874,114.65482890742969,0.03592531259437237,-0.3883041184036989,115.89171996753916
85,-11.229020298109392,114.98623742444212,0.036874397166513966,-0.4140633542633328,116.17066795956468
86,-11.465599151953938,115.1673351739942,0.03663453233690461,-0.4200368628942425,116.23287406228941
87,-2.178319418948377,100.7418313482415,0.02542563113860297,-0.05538514604823736,107.43393305265158
88,-11.51536905343528,115.20495730928131,0.033950650392853284,-0.3909542688778629,115.9212595960677
89,-11.763842050058885,115.39038378110149,0.03540387635098341,-0.4164856093527839,116.19600000012557
90,1.0483393489557784,94.38943782981241,0.010102860793551828,0.01059122650690298,100.24946256078816
91,-11.99577050609514,115.55996305826362,0.037460573148564436,-0.4493684385169688,116.52602566393601
92,-11.22927249391796,114.98643250115437,0.035719435437727036,-0.4011032738591467,116.03256206766387
93,-10.366059017746009,114.29167362886173,0.03201772812968784,-0.33189765940649074,115.210041897077
94,3.654616139785503,105.23623544377321,0.0043852709410998605,0.016026481958675915,102.04838198984459
95,-10.139149418537274,114.09943055090736,0.031428363066766,-0.3186568691139787,115.03323284768317
96,-9.813607013551518,113.81597333964017,0.029575767553296824,-0.2902449598922032,114.62764686946323
97,5.619088822728371,108.97271803033009,0.0074985713519595265,0.042135138470226964,106.2464442549724
98,-9.29582126699097,113.34515538354523,0.027690792508451526,-0.25740865789989786,114.10623150240922
99,-8.350430557140497,112.4135774617086,0.027004045497506013,-0.2254954066887865,113.53137699783687
100,-6.888585642474936,110.74200132974191,0.0272602495054457,-0.18778456335349766,112.7365988864395
101,8.428996298302081,112.49491734894032,0.004761135641047076,0.040131594694099916,106.03486417473377
102,-5.1426428626291445,108.203127391439,0.02672502862424153,-0.1374372777080153,111.38104544274593
103,-3.0598915852460777,103.69352087279975,0.026023805822603663,-0.07963002445266283,109.01076849088741
104,12.938547807963914,116.2171107843484,0.014749360219354912,0.19083530233500465,112.8065871728169
105,17.196136130995,118.68801757661758,0.023832629882349462,0.4098291478165008,116.12602843000508
106,19.92521341216343,119.9674597201823,0.024483943102779904,0.4878477914941564,116.88284343262481
107,21.942474909476005,120.80511229525936,0.02788897772876453,0.6119531940643508,117.86718205908727
108,25.124119803193025,121.9812171997193,0.03474109465003039,0.8728394240814318,119.40934354072428
109,27.821300470197453,122.86694861984834,0.04260435964312137,1.1853086909716342,120.73831468765562
110,29.652596724627074,123.42065471107745,0.038275154348980316,1.1349577164831697,120.54979681934337
111,30.421540394818287,123.64302410225143,0.04828012738391863,1.4687558454768532,121.66949608060604
112,28.64995142511907,123.12187788621219,0.04568445331807425,1.308857368445947,121.16892322278869
113,26.01802420637977,122.28488635486993,0.03678468022144443,0.9570647004254806,119.80941298370314
114,23.338310862411166,121.34078849221815,0.03148585648057178,0.7348267063128474,118.66184931783928
115,-4.160511737180058,106.36233511735634,0.03261569767295214,-0.1356979929846337,111.32573424357271
116,19.858554487946094,119.93835274356717,0.01830270568098058,0.3634652780425934,115.60462928882107
117,-1.627435691523715,98.20947681348272,0.016516425168504156,-0.026879419815604245,104.29419890363896
118,15.39130937527807,117.72491144406332,0.001265932267244807,0.01948435517331202,102.89686037570007
119,10.151388342375867,114.10990892815846,0.0065438599860385685,0.06642926397641184,108.22359440568093
120,1.6610971756745132,98.3873008829456,0.010996173316129898,0.018265712438650817,102.6163661616691
121,3.063875554944389,103.70482251938782,0.013686497337914716,0.04193372462644835,106.2256343890901
122,5.0323297290015025,108.01478187216736,0.013600899224229579,0.06844420950724399,108.35336711996295
123,-3.344379212954664,104.4657103948134,0.029468974293195064,-0.09855542505325693,109.9368053532116
124,-9.55943980977463,113.58804894761481,0.044808711615189616,-0.42834618163895455,116.31794899868773
125,8.846314803580754,112.91464788760771,0.0054913609472464495,0.04857830763943149,106.8644238087548
126,-17.308723682755954,118.74470098441051,0.06313190254434176,-1.092732656706689,120.38513922316707
127,14.415540593021431,117.1560187543495,0.010961803631062141,0.15802032521630602,111.98712951268158
128,-25.356398744173926,122.06115154047872,0.08208612016761663,-2.0814083943322648,123.18357301741429
129,20.293062854223532,120.12635209717564,0.020605094801567247,0.4181404839254388,116.21322217524737
130,-31.799464577881736,124.02779623934673,0.096126813373985,-3.056781196870684,124.85264353219864
131,-33.77166252063762,124.55044890130408,0.09931722285341492,-3.3541077326924866,125.25577007871277
132,-30.86160069789912,123.76776904377508,0.092438247383825,-2.852792279973225,124.55270150575544
133,25.033579446855587,121.94985912672678,0.029718446221352224,0.7439590845193259,118.71549051330686
134,-26.26817749332986,122.36799892953957,0.0781012594098911,-2.051577744631618,123.12087979223844
135,-22.179060906870287,120.89826315779075,0.07154533072190361,-1.5868082476832783,122.00524449121262
136,-18.22951471267152,119.19490223610715,0.06744508407973626,-1.2294911525289196,120.89725407884258
137,29.994477978281797,123.52022624491232,0.03711909712058059,1.1133679411569577,120.46638711870257
138,-13.496385849663055,116.58374980374796,0.05611950854438419,-0.7574105410084717,118.79331344975405
139,-9.47717348614242,113.51297670182232,0.04770285618548087,-0.4520882438543042,116.55223213746113
140,34.88717221793195,124.8327154688507,0.04287346589643448,1.495733988308542,121.7485436245745
141,-6.368437542958418,110.06005796512086,0.038882805278149135,-0.2476227169089067,113.93790484353028
142,-3.6243664341018302,105.16404208018984,0.031735661328013975,-0.11502166568127735,110.60779652524003
143,-2.67239485803293,102.51741263581008,0.02796919211971272,-0.07474472520405542,108.7358054956366
144,38.986149655247566,125.7976069981997,0.05028119548154564,1.960270211888296,122.92315940460324
145,-3.783564939381904,105.53742393471721,0.04351661328018963,-0.16464793228756644,112.16556281044048
146,-2.9768678560503763,103.45459121927944,0.028012977637104086,-0.08339093268015317,109.21118831200614
147,-2.9597398470505136,103.40447087576594,0.029219185341901262,-0.08648118715477948,109.36921642684744
148,42.990674547152594,126.64688527647984,0.0529414390588272,2.2759881766359533,123.57170001644344
149,-2.8518575547495857,103.08195667629744,0.030925921306106833,-0.08819632231441192,109.45450475927088
150,-1.8711122676031664,99.42139700975954,0.00678035626322071,-0.012686807782832234,101.03352359943202
151,-3.6462121415679576,105.21623874464157,0.03647754322628316,-0.13300486100624367,111.23867513670919
152,47.176079702287105,127.4538370566254,0.06837356708865627,3.2255968505041217,125.08610086381377
153,-5.041574180853786,108.03072332084726,0.04195335292922664,-0.2115109409282356,113.25332837251787
154,1.1001952099759365,94.80879508249744,0.032867545728777266,0.03616071637446579,105.5823702563064
155,-4.255814743359224,106.55905438182144,0.03953785100696905,-0.1682657692361992,112.25995775251721
156,50.43536704186408,128.03410380153582,0.07504878511457491,3.785113023299571,125.78078852042823
157,-3.367332231311593,104.5251194332362,0.032483296941109074,-0.10938205276906186,110.38946069504068
158,-4.5073121609166265,107.05775282377294,0.037686755786637605,-0.16986597266260672,112.30106390258636
159,51.54114484184538,128.22248130581593,0.07024600575476825,3.6205595571676144,125.58775695895169
160,4.888554168108384,107.76300872253007,0.02425427647659717,0.11856834436412225,110.73968755613086
161,-5.236745087750023,108.3606287666673,0.03779035148556886,-0.19789843750639954,112.96442365277504
162,-4.954005170278833,107.87852919680515,0.03935225178264545,-0.19495125879334,112.89926043757072
163,52.35821503130136,128.35909673456595,0.07149587817741576,3.7433965634648616,125.73265837320592
164,9.275639475381467,113.32627729031871,0.018603835332044127,0.172562469399405,112.36946346969671
165,-4.665695076560951,107.35772713380811,0.04440790142177775,-0.2071937270239925,113.16376602617089
166,-3.962137637485285,105.93799124808598,0.04450679482346232,-0.17634204689387525,112.46355877567494
167,53.002069419148036,128.46525661827252,0.06646102698493905,3.5225719659236097,125.46859874480968
168,-2.7556583381810924,102.7839074933708,0.042974190861457366,-0.11842218737396072,110.73433078665148
169,14.060689187826938,116.93953225165501,0.012999801683008629,0.18278617096817384,112.61943335274185
170,52.62209295094361,128.40276243452644,0.06803584956128361,3.5801887996102835,125.53905929567594
171,-1.0191163866547868,94.1438757824635,0.039423862999001365,-0.040177504807515606,106.03982961730892
172,18.991975945958984,119.55080311793672,0.004590088349004873,0.08717484751412713,109.40391196382618
173,53.40939636010444,128.5317534776114,0.07421676905079266,3.963872834800117,125.98119713414029
174,51.84765844707727,128.2739830364284,0.07469992951149608,3.873016431332796,125.88049339491123
175,24.22510873081046,121.66471478659236,0.007052137214316191,0.1708387908014045,112.32586488825169
176,-1.0069714574201498,94.03974329996538,0.04955190619944005,-0.04989735520359671,106.98077526566792
177,46.21270795252349,127.27462844405865,0.06558432707868178,3.030829353549899,124.81561484735177
178,29.72046672183205,123.4405125903247,0.019135035192505256,0.5687021766599377,117.54884890481094
179,38.41168088433915,125.66866633042521,0.04133145252836812,1.5876105650058885,122.00743980326138
180,0.9131234444503208,93.18998995546991,0.011004364628092844,0.01004834333319141,100.0209446568085
181,35.52443359303288,124.98994333067034,0.03178195977068299,1.1290361193300704,120.52707835791064
182,29.29256790709041,123.3145489945724,0.014654396929245197,0.42926491718737214,116.32725396062645
183,42.299464713272755,126.5060975176525,0.047779234520419316,2.021036044623661,123.0557405910737
184,3.538542970476556,104.955889563729,0.04610177339583288,0.1631331061763275,112.1254210555702
185,19.67095868694014,119.85591061230805,0.007478198685873848,0.14710333740255452,111.67622525882334
186,9.435016830102539,113.47425367056904,0.024214322821535458,0.2284625433507231,113.5881500725256
187,49.269311100899365,127.83092988420977,0.057942840990961024,2.854803858853603,124.55576275123457
188,-1.0908508833526869,94.73470783976695,0.045592619000899504,-0.049734748711493706,106.96659927978209
189,7.5834398305159985,111.57672499235856,0.028422144723776913,0.21553762436698,113.3352309179938
190,-8.006861901900265,112.04864684854635,0.07353241540977251,-0.5887638954992115,117.69941170102841
191,-13.368168627333946,116.50083838974535,0.08219371205183279,-1.098779402815431,120.40910509751579
192,54.795596169497,128.75431321402118,0.06979454416557472,3.824433656930956,125.82567131547053
193,-16.354790781842894,118.25229994267558,0.09362973493318803,-1.5312947257916976,121.85058786692026
194,12.795159659421186,116.12031427535484,0.018951327758713887,0.2424852644307649,113.84685352130651
195,-14.848010352550773,117.41276532032349,0.0880434159142851,-1.3072695509692387,121.1636514567443
196,59.66102397427312,129.49321414620877,0.07471236411561223,4.457416146676163,126.49083181936373
197,-10.701564362898353,114.56834544325605,0.06232928084153855,-0.6670208106188921,118.2413938383553
198,17.271201373267104,118.7258510437834,0.02109169619353679,0.3642789322623452,115.614340549455
