nodenumber,sound-pressure,spl-db,particle-velocity,sound-intensity,sil-db
1,-7.549916512449273,111.5382430706073,0.013760198745671914,-0.10388835172453216,110.16566855879104
2,-7.712661878947983,111.72348593521843,0.016055223862338153,-0.12382851304103147,110.9282065785532
3,-8.289905729616294,112.35039192489056,0.020875736111690912,-0.17305788440226427,112.38191390249008
4,-9.096828587033087,113.15720031289793,0.022201113435698968,-0.2019597233658308,113.05264767149338
5,-9.83559115654498,113.8354094426152,0.022740025930147567,-0.22366159793816293,113.49591423366932
6,-10.637195903473184,114.5159432396072,0.027917919110620915,-0.2969683747969925,114.72710202238241
7,-11.60292061297514,115.27074650306555,0.03050001571489247,-0.3538892610343916,115.48867383930909
8,-12.43355712183984,115.87130796507809,0.030449838977119725,-0.3785998122728433,115.78180394284702
9,-13.384507239679804,116.5114478257528,0.03366848410161083,-0.4506360692070546,116.53825949994713
10,-14.538875220940099,117.23001627187942,0.03971619653844982,-0.5774288257228549,117.6149846042432
11,-15.835832485943685,117.97221806803186,0.04415645902088272,-0.6992542882271356,118.44635138393828
12,-16.7363456524472,118.45261282028272,0.042370368831484484,-0.7091251381853997,118.5072288120262
13,-17.233828953132615,118.70703565132263,0.039688521655023117,-0.6839851936053682,118.35046700543093
14,-17.434521578252316,118.80760077421431,0.03872750015165138,-0.6751954370657359,118.29429498688884
15,-17.883999727622722,119.02869317835224,0.037600779230274384,-0.6724523255126292,118.27661499825787
16,-18.024323585035745,119.09657959749168,0.03729763820535936,-0.672264699970989,118.27540307431576
17,-17.800552994012833,118.9880699739295,0.03912014162312971,-0.6963601540958076,118.42833912716114
18,-18.348998146961094,119.25164722292456,0.03890098973482736,-0.7137941885592998,118.53573007773605
19,-18.77539089191123,119.451179836924,0.04266924855238585,-0.8011318206351618,119.03703982082035
20,-19.043351193220587,119.57426761964015,0.04494324623135526,-0.8558700217470858,119.3240781476577
21,-19.366929052848718,119.72061531872141,0.0429648886799896,-0.8320979508289016,119.20174452493386
22,-20.948317571295775,120.4023830682388,0.0498140208853215,-1.043519929008875,120.18500747580616
23,-22.358638934791088,120.96830734014866,0.05432300669787082,-1.2145884926099315,120.84429162164707
24,-23.690145664208107,121.47075470849295,0.054866863413792544,-1.2998039864109556,121.1387786458491
25,-25.003832733797026,121.93953178620696,0.059256803543291874,-1.4816472041359412,121.70744805845145
26,-25.574160039483104,122.13542765877732,0.057109236584267364,-1.460520756138757,121.64507733314001
27,-25.931475894525647,122.2559447951174,0.05910454806780763,-1.532668163477186,121.8544813634772
28,-27.261078498515417,122.69026075329563,0.06884815059220273,-1.876874837771649,122.73435312004658
29,-29.127419963100692,123.26544043810487,0.07174177256041503,-2.089652738264462,123.20074120376093
30,-29.819980981657864,123.46954732944641,0.0711419797287931,-2.1214524825100995,123.26633308638685
31,-30.84567016051733,123.76328429211705,0.07004955966311854,-2.160725612258034,123.3459961989193
32,-31.603094616541057,123.97399231445766,0.06742721045657163,-2.13090851178846,123.28564804158894
33,-31.584694820150613,123.96893378632264,0.061380015732765976,-1.9386690649754563,122.87503680393164
34,-30.78012926860538,123.74480887520276,0.056021429613167584,-1.7243468453053756,122.36624626831836
35,-29.20562935654016,123.28873147380564,0.054439998594205015,-1.5899544211129186,122.0138467467085
36,-27.56187406441313,122.78557496693459,0.051563040382859526,-1.4211740254106229,121.52647261353229
37,-25.772605938778725,122.20256675623513,0.048435035601130494,-1.2482970861786546,120.9631795676751
38,-21.50533040818118,120.63032247567119,0.03621686217553588,-0.7788555874324585,118.91456939835243
39,-18.128908596816476,119.14683327326648,0.02662299480959973,-0.4826458394767529,116.8362856681935
40,-16.038873030716783,118.08287707424229,0.016723220765811675,-0.2682216145274998,114.28493772366384
41,-13.814583316241624,116.78615588670245,0.013083914191440726,-0.18074882270021408,112.57075477217104
42,-12.18899238744052,115.69875620292515,0.012382445140644904,-0.1509295295572206,111.78774218364755
43,-9.395404224924278,113.43770948248171,0.007551111339921591,-0.07094574338597293,108.50926343705551
44,-8.233626934394124,112.29122379123821,0.01040063460220608,-0.08563494519551551,109.3265102412352
45,-7.5066485272109285,111.4883217269034,0.007967620943247766,-0.059810130019005786,107.76774746509672
46,-6.413537975866348,110.12135349928896,0.0061350752841349285,-0.039347538319598384,105.9491756699606
47,-6.3621524205373134,110.05148147584528,0.006623356143563797,-0.042138801320855096,106.24682177519294
48,-6.18161484906159,109.8014389361478,0.009027074859488948,-0.05580189999500744,107.46648986451905
49,-6.728885998003534,110.53826349611552,0.013854889477556752,-0.09322797180941814,109.69546236172371
50,-7.311634307261556,111.2596893257272,0.02170083694920777,-0.15866858393411673,112.00490945817909
51,-5.879051287760376,109.36554506493358,0.00859190002398691,-0.050512220900328635,107.03396463811369
52,-5.113971836486599,108.15456672598567,0.007099795142607945,-0.03630815240412138,105.60004149736076
53,-4.818865743392962,107.6382966218094,0.009790347549369471,-0.04717837042156778,106.73742935931871
54,-4.3758298346801885,106.8006085867913,0.013714999479645941,-0.060014503905657976,107.78256220466741
55,-2.8265128247003304,103.004419293108,0.008041146392827159,-0.022728403404618763,103.56568929041401
56,-1.5197086935368134,97.6146070441148,0.004273391662991344,-0.006494310461135685,98.12533046275692
57,-1.6398141369863883,98.27529261041151,0.009144952943131557,-0.0149960231182224,101.7597610126863
58,-2.1212166612094734,100.51110067970255,0.008585877908330986,-0.01821250727026203,102.60369738144364
59,-2.1021561553352512,100.43269956206345,0.006496401752713154,-0.013656450931996671,101.35337848619608
60,-2.5123446617944865,101.98098446356157,0.005814392454681183,-0.014607757845096409,101.64583560887779
61,-3.7135034261154938,105.37507666544528,0.010829962879370214,-0.04021710425724491,106.04410796982404
62,-6.090872380678776,109.67299008709972,0.016456037339935392,-0.10023162332923108,110.01004764152249
63,-9.64936532023421,113.66937506450857,0.02367664120038171,-0.22846456049859176,113.588188417206
64,-13.137289861027966,116.34951573244976,0.02862192728008495,-0.3760145550597397,115.75204656256876
65,-16.939447131793713,118.55738472192762,0.03415036911860625,-0.5784883722158712,117.62294633930405
66,-21.65572549233912,120.6908548404567,0.04328367914655473,-0.9373394738962724,119.71896906724709
67,-27.47118923430389,122.75694929749528,0.05841806780847492,-1.6048137954690112,122.0542464902026
68,-33.50181159620115,124.48076592594157,0.07306179919442002,-2.4477026314909405,123.88758654753292
69,-36.49760500020057,125.22468742005616,0.07483912190627963,-2.73144870989725,124.36393049910922
70,-36.86009315833508,125.31052865668735,0.07952567643667408,-2.931323841935419,124.6706380035465
71,-36.84674322213687,125.30738224369624,0.07987821177266596,-2.943251958230893,124.68827441639391
72,-36.92849607656535,125.32663251163356,0.07691593548156561,-2.840389821656349,124.53377947714772
73,-37.97654175074422,125.56970836954271,0.08033250943975645,-3.0507508986809646,124.84406747876793
74,-38.29076303887996,125.64128050339636,0.08171833621543101,-3.129057447956592,124.9541353665259
75,-36.000364383653505,125.10553801818232,0.07618254399596935,-2.742599343528611,124.38162367719815
76,-32.70435957866721,124.27151306944248,0.06989823628521208,-2.28597705338622,123.5907186663767
77,-29.977215235485343,123.51522580971077,0.06250198129015416,-1.8736353457792292,122.72685070689478
78,-27.2575096249202,122.6891235689594,0.058080578989006426,-1.5831319408137807,121.99517111185484
79,-24.696686353549012,121.83217381190646,0.05327209228914853,-1.315644154662418,121.191384405209
80,-22.768551849061623,121.12610826690918,0.04815037158920177,-1.096314232080324,120.3993505204875
81,-21.709989572278577,120.71259238381157,0.0465807925622812,-1.0112685207955965,120.04866488544356
82,-20.51537140359869,120.220987760718,0.04509796252045817,-0.9252014506527731,119.66236305043242
83,-19.301672970075746,119.6912991478956,0.04544065393827168,-0.8770806418629044,119.43039525755987
84,-19.246149677957877,119.66627726660286,0.04453131259430165,-0.8570563075458602,119.3300935547412
85,-19.50246029809932,119.78118813601029,0.045205697166522896,-0.8816223142380138,119.4528257382599
86,-19.63746915194497,119.8411104032246,0.04582033233691618,-0.8997953627980579,119.5414375064728
87,-9.436129418943892,113.47527786102066,0.028721531138671708,-0.2710200849347332,114.33001477048204
88,-19.9919290534308,119.99649412500042,0.045120150392847336,-0.9020388455339317,119.55225240466301
89,-20.107592050058887,120.04660139722687,0.04629857635097778,-0.9309528857639652,119.68927702495323
90,-7.186030651035253,111.10918139265154,0.01925816079358356,-0.13838973374525682,111.41103873768444
91,-19.472330506090657,119.76775873228864,0.0431062731485099,-0.8393795976336058,119.23958408832077
92,-18.619892493908992,119.37894346985577,0.0415482354378014,-0.7736236771634818,118.88529753091606
93,-18.23323901774711,119.1966765893673,0.040745728129707004,-0.7429265999410897,118.70945908221924
94,-5.587563860215597,108.92385008103972,0.019827070941175858,-0.11078502504484508,110.44481060212658
95,-17.998529418546237,119.084140531563,0.03890516306677228,-0.7002357219906394,118.45244262195506
96,-17.680797013556003,118.92943685092622,0.042789867553324264,-0.7565589624472724,118.78842780432728
97,-4.2090411772805965,106.46306357663099,0.02004127135194267,-0.08435453636538066,109.26108442769576
98,-17.178631267001034,118.67917124301692,0.043132692508550015,-0.7409606201573186,118.69795127138791
99,-16.022310557134915,118.07390299316582,0.03963824549742867,-0.6350962792997569,118.02839568440037
100,-14.333905642473836,117.10669091192769,0.03501164950552038,-0.501853680399495,117.00577113444132
101,-1.8366337017068872,99.25985107141064,0.016022135641094337,-0.029426794291752944,104.6874295332514
102,-12.642642862629144,116.01615748444492,0.030875328624176742,-0.3903457530617775,115.91449458628672
103,-11.028631585257244,114.82983267126345,0.03133390582257789,-0.3455701034443584,115.3853616300023
104,1.8760478079639145,99.44427811587944,0.0008451397806652494,0.0015855226329401445,92.00172445852768
105,5.344576130999485,108.5376654421908,0.009733529882339552,0.052021591479522206,107.16183634292037
106,7.518963412163429,111.50255951714918,0.010964643102738592,0.08244275031692158,109.16152471553787
107,8.903414909480489,112.97053233622505,0.013576277728759578,0.12087523354548592,110.82337326201029
108,11.22567980318854,114.98365309507656,0.016613694650004618,0.1865000164888984,112.70678874541687
109,13.446300470197455,116.55145632161499,0.02365295964307279,0.31804480237021115,115.02488302536726
110,15.504166724625973,117.78836868538944,0.023077454348992887,0.3577966998067305,115.53636330467421
111,15.24185039481381,117.64015397728359,0.03134292738394606,0.4777242101216189,116.79177251029634
112,12.26713142512017,115.75426044983256,0.02844205331803096,0.3489024060525609,115.42703964380031
113,9.541464206384262,113.57170059539156,0.01899298022141238,0.18122084095517046,112.58208141416704
114,6.361750862415647,110.05093323377652,0.01445705648046669,0.09197219153260068,109.63656535067814
115,-13.38708173717896,116.51311838787292,0.037406997672974285,-0.5007705353905699,116.99638767698904
116,2.2648144879349275,101.08005277735536,0.002708205680903575,0.0061335834624180905,97.8771427928981
117,-11.525865691524816,115.21287117738196,0.032324525168519365,-0.3725681356346676,115.71205708558628
118,-2.5461906247219304,102.0972183807382,0.013992867732724791,-0.035628508634037874,105.51797643693607
119,-7.8876716576342,111.91837656289472,0.023420059986051456,-0.1847297433720709,112.66536826909612
120,-9.495152824325489,113.52943926855423,0.028085973316024138,-0.2666806088555769,114.2599143798763
121,-13.89705444505671,116.83785526616323,0.030440597338042608,-0.4230346385468265,116.26375929346315
122,-7.670790270989528,111.67620226178866,0.022206799224306902,-0.1703436994396312,112.31326074803194
123,-19.086569212959148,119.5939575170529,0.043964774293101534,-0.8391367074774094,119.23832719430119
124,-25.012559809765662,121.94256288923702,0.05823641161515525,-1.4566417286302022,121.63352747094466
125,-5.200555196410278,108.30039428967146,0.013364860947262969,-0.06950469704858922,108.42014154710328
126,-32.88685368275037,124.31984660861944,0.07573570254430706,-2.490708968134931,123.96322984494707
127,-0.8891494069830514,92.9588949501387,0.003533996368958015,-0.0031422507757392763,94.97240842121427
128,-41.582968744172824,126.35770992284263,0.0949645201674798,-3.9489066739296828,125.96476870004892
129,3.5743128542235354,105.04325134623188,0.00351519480159368,0.01256440596443604,100.9914196030097
130,-48.65102457787725,127.72123990330229,0.11028701337386336,-5.365576198272503,127.29616366804
131,-50.68572252063314,128.07711292082726,0.1142403228533908,-5.790353304814512,127.62705063494306
132,-46.64284069791029,127.35509993625851,0.10458424738385473,-4.8781063902359785,126.88251267931084
133,7.314829446855582,111.26348417741518,0.010278746221388245,0.0751872755369663,108.76144348149224
134,-40.78380749332428,126.18915545040883,0.08664615940978138,-3.5337602854044112,125.48237085562063
135,-36.64782090685912,125.26036321537012,0.07978503072189369,-2.9239475169442133,124.65969573037505
136,-33.19045471266145,124.39966413329377,0.07757688407980368,-2.574812057800111,124.10745534255206
137,11.353847978272825,115.0822615860421,0.017099497120511842,0.19414509081120535,112.88126413370043
138,-28.70732584966754,123.13925486467312,0.06933360854435477,-1.9903824928160858,122.98936543021372
139,-24.516233486137928,121.76847506283647,0.0624428561853847,-1.5308636417822237,121.84936508621912
140,15.543422217931948,117.81033297156107,0.021205965896399448,0.32961328146680235,115.1800470287803
141,-21.12624754296849,120.47584737172743,0.056583005278127985,-1.1953865762308242,120.77508374551357
142,-18.280616434101827,119.2192168133802,0.05242656132799084,-0.9583898585959169,119.81542209491049
143,-17.227084858022867,118.70363594654981,0.04963659211966842,-0.8550937845085969,119.32013749653208
144,19.142409655236406,119.6193322080998,0.02885789548162165,0.5524096570971974,117.42261262208125
145,-15.408564939381904,117.73464394748841,0.0465989132800928,-0.7180223813809358,118.56137981789296
146,-16.98467785604589,118.58054636940074,0.04864287763706443,-0.8261836066565982,119.17076573345464
147,-16.530059847049415,118.34488860545272,0.048262085341946204,-0.7977751590457771,119.01880509214605
148,22.74848454716266,121.1184494914387,0.034752939058819265,0.7905766971480357,118.97944009034056
149,-16.33622755475517,118.24243557213316,0.04667302130610551,-0.7624610967244759,118.82217689449759
150,-14.5195522675931,117.218464575556,0.03980035626324252,-0.5778833530329761,117.6184018401466
151,-16.747772141578025,118.45854095779579,0.04938644322623986,-0.8271128980360447,119.17564793286091
152,25.621399702286,122.1514571197762,0.05103956708865098,1.3077051490099685,121.1650983374898
153,-17.3931341808493,118.78695703419602,0.0537026529291893,-0.9340574482649692,119.70373587897343
154,-12.821684790033032,116.13830200525848,0.042755245728756115,-0.5481942838545171,117.38934502740541
155,-16.724564743359224,118.44649656826256,0.05665815100689998,-0.9475829147539222,119.76617221642344
156,27.365047041865182,122.72332406777625,0.05655508511455309,1.5476325646164348,121.89667859382388
157,-16.52358223131159,118.3414842086844,0.0555850969411722,-0.9184649201428852,119.63062573511387
158,-18.077622160912146,119.12222618659945,0.06277225578656953,-1.1347731222977349,120.5490904075087
159,27.76771484184428,122.85020290145005,0.04992130575482179,1.386200582732411,121.41826077080269
160,-11.088005831901684,114.87646900054912,0.031242776476574363,-0.34642008777705724,115.39603067403584
161,-19.080495087750023,119.59119287258122,0.06458485148550608,-1.2323109415122635,120.90720304536688
162,-18.860255170278837,119.49035137149565,0.05952435178267024,-1.1226444634666024,120.50242238895399
163,27.553525031296893,122.78294344173557,0.05129327817746798,1.4133106242001383,121.50237623667549
164,-8.443110524618533,112.50944957564981,0.025775535332002164,-0.2176256936393043,113.37710168356251
165,-18.532885076550887,119.33826074000991,0.05743890142178997,-1.0645085589733687,120.27149157648424
166,-17.634007637476316,118.9064205777975,0.05482169482354493,-0.9667261852177872,119.85303482264736
167,27.48643941913906,122.76176979026701,0.04769272698501936,1.3109032510072731,121.17570640504616
168,-16.20097833817999,118.17022491342955,0.054723390861511234,-0.8865724699391005,119.47714241356316
169,-4.94712081218313,107.86645041215164,0.025115201683036048,-0.1242479369483244,110.94289186303585
170,26.76271295093466,122.53000280667808,0.04713124956128922,1.2613601030276484,121.00839090087645
171,-14.511306386644721,117.21353032165293,0.053522962998954426,-0.7766881147988763,118.90246659452517
172,-1.3048940540320473,96.2909051306725,0.02192408834895332,-0.02860861252662247,104.56496795706579
173,27.440636360115604,122.74728365925294,0.050382569050896116,1.3825297562140548,121.40674487405664
174,26.316408447077265,122.38393245269562,0.052727229511503985,1.3875913081075253,121.42261570751484
175,2.8579187308205287,103.10039758311108,0.014676462785701004,0.04194413789744535,106.22671272514201
176,-15.405401457421249,117.732860492874,0.05467880619949028,-0.8423489607156815,119.25492044370372
177,20.978337952532453,120.41482163552344,0.0460531270786646,0.9661180636271498,119.85030202242292
178,7.447036721830955,111.41906999439004,0.0061944648074359066,0.04613040689306471,106.63987285317856
179,14.122620884343634,116.97770610316697,0.02390595252836647,0.3376147044372358,115.28421353584187
180,-14.688436555545195,117.31891152133488,0.058276064628103086,-0.8559842779967437,119.32465787992615
181,12.430683593032882,115.86930033054091,0.007428959770720668,0.0923470483351987,109.65423018755993
182,5.519137907089317,108.81682500567608,0.0019285969291900074,0.01064419241938862,100.27112716868015
183,17.994784713271656,119.08233319052515,0.026844234520410737,0.4830562209873664,116.83997679496143
184,-14.234897029513375,117.04648668578501,0.05846137339580083,-0.8321916304931575,119.20223343698078
185,-4.258731313064345,106.56500490540856,0.01876969868590095,-0.07993510353042907,109.02737541786928
186,-14.705603169888489,117.32905693421385,0.037611522821578085,-0.553100129229332,117.4280375994011
187,23.167741100900454,121.27707391293976,0.03761814099101457,0.8715273511769965,119.4028102114062
188,-25.45022088334372,122.09323120563845,0.05917301900097983,-1.5059664039092313,121.77815283445305
189,-12.096250169488485,115.6324152895867,0.039103244723833086,-0.4730026306182157,116.74863556086224
190,-31.00686190190027,123.80855638686116,0.09135471540980687,-2.8326230447992824,124.52188784031185
191,-34.91503862733953,124.83965062367315,0.09842911205197424,-3.4366562493494115,125.3613609411664
192,28.029966169502586,122.9318515585817,0.0510262441655982,1.4302638977184965,121.5541617645038
193,-37.7297907818429,125.51308802612695,0.11157413493316426,-4.209668767693397,126.24247925284064
194,-8.814210340584395,112.883068291036,0.03771962775874727,-0.3324687330341444,115.2175080840833
195,-36.41832035254629,125.20579832367315,0.11300671591430955,-4.115514782156517,126.14424165931551
196,33.09852397427312,124.37557262439701,0.05676796411569285,1.878935821253936,122.7391194617222
197,-32.08437436290842,124.10527158829015,0.09092428084153427,-2.9172486651980067,124.64973449800692
198,-5.408478626733996,108.64090244269826,0.03033859619347368,-0.16408564907751572,112.15070599340812
