nodenumber,sound-pressure,sound-intensity,rms_spldb,rms_sildb
1,8.009887957427344,0.20245317255342823,112.05192891074879,113.06324586793005
2,8.534213790064575,0.20424015015006358,112.6026704495986,113.10141121074103
3,7.964436707639062,0.18944796998577598,112.00250139338087,112.77489955988953
4,7.514530226888472,0.18582393091884608,111.49743680115462,112.69101642901697
5,7.360831503119985,0.1902766753671077,111.31793761482754,112.79385554549769
6,7.274160803377737,0.19490481185195685,111.21505803442312,112.89822561205646
7,7.25690526849603,0.20177717212583662,111.19442916365242,113.04872031174585
8,7.283647749636065,0.20940313808842842,111.22637877402028,113.209831856727
9,7.341427550667135,0.2192232286318958,111.29501043244163,113.40886569575908
10,7.4084879889624595,0.22474297914385885,111.37399170904686,113.51686133478876
11,7.525202728390192,0.23355972834448488,111.5097641723974,113.6839796144755
12,7.615507689069169,0.23803996834575497,111.61337730572093,113.76649883840847
13,7.758283990632192,0.24637806795614206,111.77471354329555,113.91602045255546
14,8.035854735257224,0.25850095700554876,112.08004163419179,114.1246215524992
15,8.306200606876304,0.265116911490309,112.36744840165179,114.23437431741644
16,8.633676832620422,0.29263480100577177,112.70331585745157,114.6632597245929
17,9.034113418767836,0.3306645582727865,113.09711085890514,115.19387648281047
18,9.916352114251877,0.43704367808983563,113.9064388765537,116.40524842474946
19,10.867517809384488,0.5560195345818434,114.70200729818274,117.45090049877147
20,12.033104105429809,0.6981997509556138,115.58695356778907,118.43979689567502
21,12.567427671078486,0.7418763173819829,115.96432797523882,118.70331507494916
22,12.765311925599724,0.7608200978338981,116.10002871537239,118.8128197640974
23,13.462264488813247,0.8432549799088213,116.56176246171245,119.25958914629143
24,15.212625229899038,1.0503987163575614,117.62348341377404,120.21354182351064
25,17.029794159557618,1.2776357522102342,118.60358805958539,121.06407056206798
26,18.177367373099305,1.4281736591745524,119.17001977871165,121.54781018809723
27,18.952422907772842,1.522363430011651,119.53269486168033,121.82518342846686
28,19.605192369669325,1.6440112144467594,119.82682224737245,122.1590477570752
29,20.0341509833531,1.697965506399754,120.0148189351892,122.29928863450687
30,20.218463618838246,1.6554732126230742,120.09436310468695,122.18922157782679
31,20.070124483615576,1.5891854652344475,120.03040141029139,122.01174584323583
32,19.85523947670198,1.5168051765369353,119.93690267702817,121.80929802152212
33,19.48031968339928,1.4344297336268492,119.77132167925306,121.5667927893577
34,18.896979416105193,1.336187476211414,119.50724788684548,121.2586739689099
35,18.244116147836387,1.248861315753191,119.20185665540585,120.9651421327629
36,17.613043957091215,1.18855886711473,118.89608846617593,120.75020696396528
37,17.04988698871053,1.1521612780254542,118.61383018104195,120.61513275314688
38,16.58644075229795,1.1022831575776404,118.37446412128153,120.42293171627564
39,16.133801277435285,1.0524659407953387,118.13413415405107,120.2220805038516
40,15.770834040925324,0.9904522665234825,117.936493318921,119.9583355015727
41,15.287237884778312,0.8899361054343228,117.66598056048335,119.49358826809609
42,14.92320191399751,0.8109221551340725,117.45664038911775,119.08979165902458
43,14.167043975748673,0.6986562900048645,117.00498492660893,118.44263573362409
44,13.796392665623028,0.6341981566099582,116.77471101733732,118.02224975352239
45,13.16070750288995,0.5498486637741513,116.36498482720586,117.40243173982014
46,12.853396693600322,0.5095588290340721,116.15975831376845,117.07194330933184
47,12.122748404246984,0.44862751939783974,115.65142192471697,116.5188591025466
48,11.645748387498728,0.366809708490434,115.302748140987,115.64440821785402
49,9.67256825768519,0.2206023472821377,113.69023614966265,113.43610129166078
50,8.11820296262238,0.2021404788391421,112.1685981843774,113.05653290141606
51,8.703663598795378,0.237624787506199,112.77344202605845,113.7589174150979
52,9.353821895750352,0.269969089886771,113.39918201345932,114.31314042455
53,10.017972698046478,0.31409293758845225,113.99499696219132,114.9705817135283
54,10.618812871627286,0.36234892675630725,114.50091943835412,115.59126979316491
55,11.357656860707515,0.41967686521140823,115.08517495818691,116.22915029283087
56,12.104690091807973,0.4842155027130609,115.63847358616536,116.85038689762793
57,12.919287045191801,0.5597442511516101,116.20417103965018,117.4798964185633
58,13.812843896437005,0.6480835213195847,116.7850621613721,118.11630978881084
59,14.512264185460573,0.7443514805746057,117.21410360293079,118.71778056552412
60,14.956211315531778,0.7806758341483142,117.47583193971393,118.92470735969692
61,15.12821296305047,0.7946029623541789,117.57515267742446,119.00150179812819
62,15.282144805335031,0.8066522627291697,117.66308629684576,119.06686356376774
63,15.490802828599588,0.8175253976970408,117.78087860974905,119.12501253574945
64,15.609177561143092,0.8215878216309542,117.84700050534616,119.14653993104224
65,15.668027116601941,0.8111524593001767,117.87968637688999,119.09102489241943
66,15.908530002319738,0.8216307778172642,118.0120011134978,119.1467669931591
67,16.55094036777371,0.890158707845642,118.35585356549049,119.49467444618816
68,17.55456109263471,1.0326517220503229,118.8671995967783,120.13953873605357
69,18.96461040257432,1.2763134923069357,119.53827859169367,121.05957360323305
70,20.6076817080879,1.5826321206496752,120.25998284514337,121.99379975797751
71,22.181084292271635,1.874799809825562,120.89905553131544,122.7295490079456
72,23.48431283639919,2.1512590395174125,121.39495722703029,123.32692708230113
73,24.60604460579337,2.37155037632855,121.80023622592232,123.75032354342787
74,25.62251114456542,2.5863392890066335,122.15183390073689,124.12685497217919
75,26.530495289739303,2.790458247159804,122.45430724210979,124.45675528675378
76,26.668470063368183,2.823791530901305,122.49936211623172,124.5083263135954
77,25.295300841736342,2.4717978302452144,122.0401970651338,123.93012946675893
78,23.23265173875615,2.048754531983617,121.30137573324923,123.1148992726839
79,21.976183196880747,1.7995624158438763,120.81844542219909,122.55166914276782
80,21.35025000463872,1.7205298973394014,120.56745938354248,122.35662223679827
81,20.23835347711537,1.5786630483443707,120.10290362468984,121.98289443586074
82,19.1105046667565,1.511252819317491,119.60484320625451,121.79337124067595
83,17.859872903296523,1.3727141637227729,119.01696736635616,121.37580114773984
84,16.358989171192786,1.0902804315244434,118.25452938524094,120.3753821738967
85,15.55388446388385,1.0282578612165083,117.81617745951388,120.12102038453422
86,14.785166471784391,0.8974735704948902,117.37592446223206,119.53021667994383
87,13.26231148483215,0.7061046027406065,116.43178456149037,118.48869042451204
88,11.70372984886223,0.5435485447859655,115.34588585948501,117.35238337366533
89,10.764168566141022,0.44230697233016136,114.61900989005541,116.45723785448394
90,10.60123396303609,0.3408209849308459,114.48652847153878,115.32526327171811
91,10.271911824408503,0.39607052481885835,114.21242574059058,115.97772523836187
92,10.007236940778622,0.36648720489981657,113.98568374016517,115.64058816798685
93,11.017171550394439,0.3647220813212039,114.82080232599365,115.61962057543694
94,9.912482529323821,0.352078767350926,113.90304878443168,115.46639835066284
95,9.970493523040409,0.3480239252724266,113.9537332008541,115.41609101005855
96,10.43213778768213,0.30622424744854176,114.34686637847044,114.86039576029704
97,10.16714960819693,0.35414988847557655,114.12338437046338,115.4918710937188
98,10.28176542008628,0.350800933154985,114.22075390981635,115.45060739949196
99,10.416320613115635,0.3088367435447786,114.33368686597234,114.89728964492198
100,10.395598763372188,0.35235167445445476,114.31639026240686,115.46976339703308
101,10.7569143146246,0.3580975290726804,114.61315427109665,115.54001324324378
102,10.83235893398702,0.37217232248902044,114.67386092828933,115.70744072617329
103,11.315251589410117,0.3898931660928834,115.05268438143995,115.90945623097295
104,11.280110454656686,0.4232460380382696,115.02566713217223,116.26592901414946
105,11.828070014687182,0.5014105341056198,115.43767781892254,117.0019345378631
106,12.687782264842312,0.612036375542879,116.04711442883143,117.86777234609747
107,13.92979898637323,0.7776775585896375,116.85829707458403,118.90799566717362
108,15.4364675782541,0.991290380564541,117.75035858859468,119.96200891825445
109,16.74275596869198,1.1722877841487658,118.45593903260215,120.6903423943423
110,17.50370252108566,1.2638575620746753,118.84199856261526,121.01698131311325
111,18.047237458030853,1.3155773236308448,119.10761473947233,121.19116379019444
112,18.648014734226702,1.3748142300312964,119.3920521598953,121.38244018658733
113,19.51955812655252,1.4828924173437763,119.78879972897727,121.71109644454715
114,20.451516791245442,1.5538341866544498,120.19391054839434,121.91404672339324
115,20.722849201606092,1.4575121075445003,120.30838942041055,121.63612171127741
116,20.1481731745031,1.2722751064415514,120.06411358638769,121.04581029780304
117,19.45013225011158,1.1532160391928032,119.75785125938773,120.61910674025299
118,16.65788160669409,0.6794717718888839,118.4117955083042,118.32171419026511
119,18.927559723193273,1.1053393397593143,119.52129259096517,120.4349562712592
120,17.056070372286822,0.8966953596312691,118.61697967116496,119.52644922305225
121,18.80330556390398,1.1587647924580233,119.46408415919575,120.63995291266373
122,16.161802423057555,0.7750415385048216,118.14919595155231,118.89324979228886
123,19.342678328147116,1.3145780518404075,119.70973227648929,121.18786377035958
124,20.643985772852087,1.5761276693628083,120.27527110865466,121.97591393264004
125,15.08941595541722,0.6483387494793801,117.55284869634986,118.11801979002502
126,22.461015438984067,1.9768436580073911,121.00798781407934,122.95972323765093
127,14.299156061762693,0.6426881300443755,117.08560820869954,118.08000278899301
128,25.19012111152876,2.6098388478998604,122.00400519765302,124.16613691388632
129,28.799228798351084,3.580147715385794,123.16701724947097,125.53900945820826
130,13.756967157622743,0.6421892274464934,116.74985409627062,118.07663016117148
131,31.774906948918726,4.467508474331239,124.02108583512465,126.50065384983347
132,33.342088493343965,4.996201192978043,124.43925608337895,126.98639918741497
133,13.079297995970022,0.6019481155572555,116.31108878199277,117.79559059200906
134,33.55651636826668,5.031936748983282,124.49493746086246,127.01735173426842
135,33.861871335698964,5.0621064593909955,124.57361919071425,127.04331274413677
136,12.895849806428801,0.5978455649937966,116.18839941493101,117.76589011859596
137,34.598669040826564,5.3842699392797595,124.76058793578837,127.31126825027374
138,34.964206490949216,5.416591647574264,124.85187361511521,127.33726095714587
139,13.350785609383642,0.6479247649822647,116.4895365254989,118.11524579867529
140,34.93344902285311,5.428899735468614,124.84422941049323,127.34711820890381
141,33.3099044922256,4.781484117930527,124.43086783597539,126.79562717571909
142,14.60011854088038,0.7911835965896267,117.26652772493136,118.98277274564278
143,29.895229716328064,3.8250692098102443,123.49143798487796,125.82639297572449
144,16.62242676171287,1.030101194014909,118.39328864930891,120.12879890572692
145,27.64217651145477,3.2741721239713497,122.81084480410644,125.15101506635497
146,27.154203486654875,2.990073002037237,122.65614145011897,124.75681791667208
147,18.487709554109923,1.1553563043881179,119.31706228002051,120.62715938484976
148,26.217605629887455,2.7659876890912307,122.35126061548766,124.41850242811742
149,24.499816955448622,2.3793843875301346,121.76265687969627,123.7646460761029
150,19.563089022971095,1.2230070036155447,119.80814871099726,120.87428944054173
151,19.364404828743005,0.9857496098179334,119.71948315363244,119.93766613841683
152,22.751627263195914,2.017941529920118,121.11964936913503,123.04908578352362
153,20.65493377526375,1.2972288375543077,120.27987622394451,121.13016594527224
154,20.468087877807303,1.5124232050284434,120.20094554485101,121.79673332098652
155,21.315781800990596,1.4492906876620542,120.55342540543998,121.61155501679737
156,18.329384056121697,1.1112147144475948,119.24235750869025,120.45797983594467
157,22.26126632996051,1.4189992135575031,120.93039739673156,121.51982154761399
158,17.272457825183157,0.9618970311462626,118.72648290519798,119.83128584305564
159,21.8378728774757,1.529480661992501,120.7636067576999,121.84543990347804
160,24.257178254532526,1.6692407237850988,121.67620567952426,122.22518971474257
161,16.535050938138095,0.8136782165938357,118.3475108296443,119.10452689425959
162,21.01555008724817,1.4162250836774997,120.43021533184574,121.51132282188975
163,15.95124020935533,0.692557970757714,118.03528918899211,118.40456131998522
164,25.961602598712304,1.8852487202808013,122.26603004211839,122.75368654658415
165,16.063670840143995,0.7118100745075234,118.0962960157229,118.5236413043948
166,27.107956293230618,2.111142969101405,122.64133562163563,123.2451764524008
167,19.6517540039835,1.228697792276556,119.84742646874096,120.89445077934474
168,16.950319770142517,0.8270216556638004,118.56295799956543,119.17516881755878
169,18.159609228995066,0.9890053780915965,119.16153006346455,119.95198653244452
170,27.864720392513725,2.2561483628448253,122.88049387676993,123.53367655172227
171,18.904391902624365,1.0905058498933358,119.51065432626439,120.37627999643817
172,19.17275141649164,1.0887268544213535,119.63308891627518,120.36918935314057
173,27.384289670837713,2.263934736554839,122.72942968908674,123.54863903098108
174,18.19090252690454,0.9558026092232613,119.1764850220646,119.80368211756776
175,25.527194463051558,1.9049759915022102,122.11946182254837,122.7988950661331
176,17.122700170904174,0.7686770210861456,118.65084512631964,118.8574389841719
177,24.071509805512033,1.7116569471754064,121.60946670288894,122.33416727118168
178,16.12370628143196,0.6401388184785213,118.12869765069543,118.06274163924188
179,23.345280580517677,1.6480537163736553,121.34338204600698,122.16971362909929
180,22.792645461416264,1.5589678787968435,121.13529478920256,121.92837167013732
181,15.687684682824287,0.5887517503768732,117.89057711821468,117.69932211309586
182,20.460254465804795,1.135004044332437,120.19762070201213,120.54997409042913
183,22.600345568573722,1.5361846641179198,121.0617016815067,121.86443425192175
184,16.14088512090154,0.5991228032910769,118.13794701734521,117.77515849643804
185,23.19129163854776,1.6898393201798139,121.28589883341071,122.27845411313785
186,22.313556405943405,1.498804230955573,120.95077598758694,121.75744910387911
187,24.542918115525843,1.967850915908141,121.77792405496889,122.9399219325642
188,26.79045188184902,2.499146123888889,122.53900086738653,123.97791649861273
189,17.283341468562334,0.6831046936870611,118.73195429525752,118.34487269429941
190,23.451908266726853,1.6683658308001694,121.3829638217647,122.22291286635974
191,29.60512829414479,3.1451237854658163,123.40673903555933,124.97637743036233
192,18.614235430435397,0.8252943977148594,119.37630413695746,119.16608897030125
193,32.3825137330575,3.9969571206247205,124.18561125426604,126.017294891718
194,23.367088888340227,1.6320384022361532,121.35149229906656,122.12730373586369
195,35.01641671519058,4.637697636175183,124.86483412644259,126.66302430541464
196,20.07761928110842,0.9870271984635441,120.03364438130467,119.94329120227776
197,37.938351417031704,5.444632495375792,125.56096918707118,127.35968570847203
198,22.61613265249276,1.5056888350228625,121.0677669426502,121.77735230035154
199,41.26768434059023,6.585845683367074,126.29160208538865,128.18611550298252
200,21.81201312039814,1.2501264229574995,120.75331509176829,120.96953934621276
201,43.889304070478374,7.549875054138096,126.82657397714581,128.77939764377882
202,22.316094227586717,1.4705396833672988,120.95176381690783,121.67476748690012
203,24.13108412369658,1.689921198796978,121.63093675975944,122.27866453888504
204,44.000120363351236,7.567549551779937,126.84847737692948,128.78955273367512
205,42.2535446396219,6.557894642525094,126.49666304017691,128.16764435124207
206,27.159429533161465,2.4436744747588324,122.65781295912383,123.88043352457652
207,22.07025927151428,1.4702334490814024,120.85554878849138,121.6738629910072
208,41.64284297601761,6.307017856931565,126.37020751340835,127.99824060604207
209,30.184555899268876,3.223871602058404,123.5750958972912,125.08377736722402
210,21.229027240439603,1.3624172654826554,120.51800197306602,121.34310138665887
211,42.45228876188698,6.5655154884614975,126.53742227978618,128.17268830197838
212,21.290513804700954,1.1625464525808726,120.5431229348892,120.65410315279397
213,42.70356850821692,6.76144432585296,126.5886834507674,128.300394763777
214,32.35019226037087,3.8110173985657902,124.17693740806362,125.81040931475884
215,20.16297845473333,1.259410618681393,120.0704938077768,121.00167350721874
216,41.03260713168074,6.196061465188042,126.24198232804785,127.92115717327903
217,22.495803645835583,1.502715353152774,121.02143033923485,121.76876723592558
218,33.106120198242614,4.1565215235504605,124.37756583693306,126.18730033733615
219,37.402847144953135,4.817108802097511,125.43749333515741,126.82786455659864
220,19.352686898920584,1.1759808992027299,119.71422549383465,120.70400267796053
221,23.44550836407382,1.6718245317097276,121.3805931645952,122.23190693611872
222,32.237752896864016,3.8049875614684225,124.14669532847343,125.80353241397141
223,33.580350139818684,3.6088294437393356,124.50110449035977,125.57366357428535
224,18.774668235276064,1.1020033979811104,119.45084551437293,120.42182933646593
225,30.85089037829567,3.060606278800643,123.76475413857919,124.85807464866171
226,31.008397338922194,3.3993801234897045,123.80898649508566,125.31399730721226
227,23.896971030954916,1.7804660329402995,121.54625722877356,122.50533692782916
228,28.479978062312004,2.622073022372692,123.07019309541246,124.18644782232754
229,18.27996611084081,0.9915466968158533,119.21890781195401,119.96313172088365
230,29.912425812958084,3.0080592598929305,123.49643277694355,124.78286387767673
231,25.200243767692797,1.8454477062713832,122.00749492334475,122.66101743273454
232,23.801199152797444,1.7818963730232096,121.51137685165193,122.5088244384631
233,22.37830864452219,1.5145258581260674,120.9759452747057,121.80276692621398
234,28.26905988755273,2.6174106053267847,123.0056274044152,124.17871857771598
235,17.932640244831955,0.9286079961262119,119.05228480640392,119.67832419001206
236,21.03922213498366,1.3041880705231177,120.43999366638369,121.1534022337514
237,26.8487660428358,2.2442270586876516,122.55788669703931,123.51066794360648
238,23.569839181589717,1.76393074304512,121.42653247306902,122.4648152948979
239,17.966590435139562,0.9312567410387529,119.06871344225655,119.69069429472148
240,20.66057207308153,1.1701660684281776,120.28224693837196,120.68247500621342
241,26.29866386807521,2.149743849892385,122.37807377175315,123.32386715168806
242,25.918981675296322,2.053036258901283,122.25175877954392,123.12396619561382
243,21.171249217905537,1.2208438328179592,120.49432977657173,120.86660113672096
244,20.825050987758818,1.203745667948097,120.35112155473163,120.80534737192094
245,23.26691646124317,1.7188019532913112,121.31417669736098,122.35225838555708
246,18.456895657903114,1.0066238008913782,119.302573227435,120.02867194761288
247,25.57392002205641,1.9767680402340464,122.13534613998416,122.95955710913752
248,25.48279964189244,1.8956236069860326,122.10434287885056,122.77752108510128
249,22.131944503409144,1.4567754827040693,120.87979153743129,121.63392623742428
250,19.682946833320365,1.2049340651955835,119.86120247436176,120.80963282674226
251,22.69132935837537,1.6052316574069978,121.09659887713413,122.05537716039125
252,26.055244949467756,1.9413898042694167,122.29730329457843,122.88112744479841
253,27.077700225184508,2.128791772955921,122.63163560461533,123.2813318314858
