nodenumber,sound-pressure,sound-intensity,rms_spldb,rms_sildb
1,20.941063030459414,2.835405502045324,120.3993745662842,124.52615177764093
2,20.914965799748014,2.829073501844877,120.38854326185674,124.51644230960335
3,20.886262960585796,2.8225558272886944,120.37661491717223,124.50642540585896
4,20.86069435436669,2.822868344195207,120.36597528574175,124.50690623551503
5,20.840820787101713,2.823505513510041,120.35769646783977,124.50788640128378
6,20.81828887044096,2.8235503939009363,120.34830069523963,124.50795543302858
7,20.790608305846064,2.82077474767354,120.336744014771,124.50368407052834
8,20.762282427340867,2.816537082813263,120.3249019749819,124.49715473574265
9,20.736997315938254,2.8108947554130377,120.31431751589416,124.48844585202235
10,20.716707394384212,2.8056402478176077,120.30581472779892,124.48031983013067
11,20.706676920414765,2.801323550658999,120.30160823462796,124.47363272390419
12,20.704178179398603,2.7970093528309725,120.30056001726203,124.46693918597516
13,20.70871913937283,2.7939713557922046,120.30246484787756,124.4622194934969
14,20.72201538948352,2.7928240733895042,120.30803992475418,124.46043579323441
15,20.739423104065107,2.7930883883346462,120.31533352102507,124.46084679331015
16,20.75868289324031,2.7955406924070196,120.32339598128532,124.46465818311451
17,20.777660275286898,2.7995059662910875,120.33133290808107,124.47081397397902
18,20.78972671190823,2.8008576928876856,120.33637569510029,124.4729104357414
19,20.792015118963576,2.7995325449639865,120.33733173254724,124.47085520595466
20,20.790772446099307,2.7974198840257065,120.33681258893083,124.46757657515391
21,20.784485354227957,2.7943586503116715,120.33418559444208,124.46282146178712
22,20.773665319892995,2.788984988740563,120.32966269702183,124.45446176752718
23,20.761591271245564,2.782874736252388,120.32461282538998,124.44493658156279
24,20.757091533439468,2.780537712729943,120.32273009580913,124.44128789835304
25,20.765879810834168,2.7798039207389116,120.32640680805913,124.44014163132331
26,20.780151245243562,2.7829473795793267,120.3323741703309,124.44504994701134
27,20.809541770901696,2.790536120571048,120.34465042852149,124.45687648376838
28,20.84854788609768,2.8018128342833895,120.36091631654489,124.47439120331322
29,20.89109765486834,2.8139145997367794,120.37862527017398,124.4931091277681
30,20.939122570176917,2.8291649183465677,120.39856966899775,124.51658264190925
31,20.988017688071377,2.843929181743925,120.41882851745657,124.53918777584887
32,21.03004080865339,2.856820752058155,120.43620239537384,124.5588299192836
33,21.07270660413615,2.8680977217389185,120.45380649679299,124.5759394451632
34,21.099403361771383,2.8742423269260975,120.46480358096433,124.58523380642417
35,21.128370254526732,2.8799348874182944,120.47672006395872,124.59382668886104
36,21.14718135262314,2.8866682959678998,120.48444988067823,124.60396882423436
37,21.165897792522703,2.8898366851307453,120.49213397955603,124.60873299936253
38,21.17633375441894,2.8965654502601046,120.49641554960189,124.61883346184173
39,21.180291522120186,2.899179821234647,120.49803875415806,124.62275153246671
40,21.181327129016,2.902318271348455,120.49846343893138,124.62745035913997
41,21.168347061636823,2.9044916049488707,120.49313903261962,124.63070125542959
42,21.166123047544897,2.9101683598261534,120.49222641739503,124.63918114631412
43,21.14575209710852,2.8956339925678423,120.48386281543321,124.61743666277307
44,21.128572731517448,2.894967756151354,120.47680330201011,124.61643730963792
45,21.11795664511811,2.8925424033744305,120.47243796558345,124.61279734232791
46,21.0987579988931,2.8892547287028,120.46453790347712,124.60785832738341
47,21.09306132438561,2.8912097613136614,120.46219239256196,124.61079601486054
48,21.043556178177894,2.8775633853633376,120.4417827602845,124.5902489880412
49,20.948641397944602,2.836905458146209,120.40251733681598,124.5284486287038
50,21.151570911958693,2.7900654004830536,120.48625263967438,124.45614383465717
51,21.237600844816818,2.8033158825764755,120.52150916851761,124.47672037585622
52,21.336489698513137,2.8103633370701493,120.56185949442639,124.48762471180503
53,21.44517216336464,2.811492871337865,120.6059908294408,124.48936986674319
54,21.518663014250286,2.820183472529709,120.63570577644822,124.5027736311201
55,21.595742725801436,2.8286063308905938,120.66676298666232,124.5157250906231
56,21.650011951145334,2.843154418581869,120.68856289525635,124.53800447913022
57,21.731660160308586,2.863482643042783,120.72125818507799,124.5689455498782
58,21.791333392439082,2.8858975864052345,120.74507618982014,124.60280914959738
59,21.847441938078195,2.9022884285442605,120.76741196345444,124.6274057030044
60,21.900067875508213,2.918439494385491,120.78830930399123,124.65150693867903
61,21.94221906723589,2.9325788168252513,120.80501101997355,124.67249693166869
62,21.982409279989277,2.944092260193759,120.82090587728068,124.6895141553816
63,22.0179825000789,2.9569633287762844,120.8349505309117,124.70845938591435
64,22.052686220407107,2.9666795230839553,120.84863004864344,124.72270633990078
65,22.07368007303972,2.9742410210242043,120.85689496216887,124.7337615916224
66,22.091070210114115,2.978975738541317,120.86373520549672,124.74066966236012
67,22.105625609942237,2.981474332252337,120.8694562938618,124.74431074822407
68,22.106071020081874,2.980421400638474,120.86963130561715,124.74277673147851
69,22.095441320113743,2.9762451156020004,120.86545369278443,124.7366869568086
70,22.09694599961443,2.9764751006095405,120.86604517384629,124.73702253858002
71,22.090635525706325,2.976837892817572,120.86356429218631,124.73755185277666
72,22.074292235401717,2.9727939383844237,120.8571358418487,124.73164806775038
73,22.056329986172646,2.9703886896158473,120.85006509980079,124.72813282553014
74,22.02135887593711,2.9649024879229517,120.83628237772058,124.72010414511958
75,21.97453853117856,2.9609201790906248,120.8177953584811,124.71426699774392
76,21.93231890875965,2.9574639919071926,120.80109112978894,124.70919465654589
77,21.8929594580163,2.9544693219472555,120.78548954321478,124.70479484795227
78,21.856806989610437,2.950120846037059,120.77113443013926,124.69839806382268
79,21.81949481012121,2.9442941142256975,120.75629390845192,124.68981190789538
80,21.781136084537494,2.9368838232410264,120.74101065515026,124.67886767114125
81,21.74316270734208,2.9284746691093324,120.7258544019148,124.66641471794534
82,21.70629394950298,2.9196677567036304,120.71111368646365,124.65333433763567
83,21.669287092294354,2.9113606736540474,120.69629255679403,124.64096011304404
84,21.631992356571388,2.904065125148918,120.68133050288736,124.63006351413618
85,21.597594808714067,2.8974138273998578,120.66750786949414,124.62010528383261
86,21.565577182421414,2.891870707060386,120.65462180915014,124.61178872140667
87,21.53833046691801,2.8863434766069824,120.64364080959396,124.60348011136915
88,21.513854506104682,2.8803442107888073,120.63376463176708,124.59444390507018
89,21.49089144467548,2.8727547106178526,120.62448869573386,124.58298545458383
90,21.4735886077644,2.8648944528515305,120.6174926590181,124.57108626516836
91,21.46220387155444,2.8555755162340457,120.61288640587193,124.55693649652282
92,21.456493141987696,2.8459413186782565,120.61057492996451,124.54225940991778
93,21.454643718403645,2.8345684922899674,120.60982622506735,124.52486955405028
94,21.453959463035012,2.822418566255733,120.60954920059318,124.50621420309682
95,21.447401616472817,2.8075146711193275,120.60689377286255,124.4832203441507
96,21.443617186354704,2.7909311831967476,120.60536099778041,124.45749128095089
97,21.486862794838828,2.7835041448296853,120.62286029943473,124.44591872337881
98,21.52906880567793,2.781947016987182,120.6399050015352,124.44348854466517
99,22.297805351187648,2.8174473611171122,120.94464248600403,124.49855810790929
100,22.640221848216836,2.852933204792556,121.07701364922204,124.55291603718207
101,22.897060528342383,2.8917701565778358,121.17499473067068,124.61163771438271
102,23.193880413685427,2.950331909962739,121.28686835941103,124.69870876505895
103,23.468698622929537,3.0150166203829625,121.3891802455006,124.79289710546058
104,23.718104349162775,3.0763341774899287,121.48099959540723,124.88033510439166
105,23.91697016453035,3.1413827051239855,121.5535233220041,124.97120848400701
106,24.076511855842348,3.1873512986323975,121.6112714398559,125.03429932519714
107,24.203032353834804,3.232056905732636,121.65679571379678,125.09478998645898
108,24.29488264683694,3.2557039587305936,121.68969619878054,125.12644907600782
109,24.340941565829347,3.2729293129197785,121.7061475620828,125.14936625735628
110,24.37532240759427,3.2873394351623695,121.71840746144518,125.16844549596392
111,24.388257385271462,3.2933860795308103,121.7230154820904,125.17642645495212
112,24.402670308845828,3.29458567332768,121.72814713557955,125.1780080554562
113,24.44285326807284,3.3014382917069547,121.74243810033346,125.18703184140722
114,24.49605632122103,3.309265765114958,121.76132352438492,125.19731646485366
115,24.55856017897612,3.3193042867310374,121.78345811407083,125.2104706680776
116,24.629767331115183,3.330899591064346,121.80860627129776,125.22561541215963
117,24.68378293961912,3.3410306803066194,121.82763446128853,125.23880463733519
118,24.722762652257096,3.349633725861788,121.84134007653807,125.24997320608854
119,24.761919723277256,3.364702774422696,121.85508631283145,125.26946706263021
120,24.788989779076218,3.3745635476271376,121.86457665490263,125.28217610910937
121,24.79558220017971,3.3750127380278214,121.86688628631435,125.28275416291415
122,24.80497125247529,3.3773689926629933,121.87017464772738,125.28578511841508
123,24.786088608025413,3.3720571079452077,121.8635600452505,125.27894921069984
124,24.729843850593692,3.364049252135809,121.84382756959565,125.26862345560542
125,24.669482719845345,3.3501353955603794,121.82260094901444,125.25062359382069
126,24.607739466915294,3.3327855728206504,121.80083448825634,125.22807372605487
127,24.547352758614505,3.310547841755837,121.77949336065295,125.19899868387229
128,24.494623028411585,3.2889583278283947,121.76081528798848,125.17058370865193
129,24.441964284010698,3.267183584875538,121.74212218967483,125.1417353841126
130,24.379624395878345,3.2468165452356543,121.71994029443985,125.11457750392961
131,24.305022605197305,3.2257729854747668,121.69332067335816,125.08633800553028
132,24.228567111908188,3.2077552132696305,121.66595469733471,125.06201219467977
133,24.148310641663276,3.1873325913430497,121.63713516555902,125.03427383539191
134,24.06683951591503,3.164207510175045,121.60778132643891,125.00264956990249
135,23.99108959286569,3.1399299846350694,121.58039953830148,124.96919964116002
136,23.9226305439069,3.1155037911252843,121.5555787501463,124.93528284065758
137,23.858933839327186,3.090601408423386,121.53242074428505,124.90042998177367
138,23.801703082263842,3.066216192100948,121.5115607511843,124.86602772738308
139,23.752510515110487,3.0424687160517943,121.49359046719077,124.83226121325791
140,23.710269543447858,3.0191736823746775,121.47812990990846,124.79888097165957
141,23.704200514122714,2.921764422467092,121.47590633051794,124.65645196489776
142,23.67744556800889,2.998874827793927,121.46609702446244,124.76958338806247
143,23.65091897938125,2.9777744645671143,121.45636049341499,124.73891801373449
144,23.9501432553856,2.995996165762429,121.56556239566723,124.76541253223262
145,23.6288753889985,2.9608040929179746,121.4482611262446,124.71409672441845
146,23.616928824901592,2.9431315664187605,121.44386850170417,124.6880967674199
147,24.208333596732384,3.0659444485067127,121.65869799480178,124.86564281658096
148,23.654775039000263,2.9381563486551157,121.45777653049288,124.68074902261424
149,24.452339657619554,3.1332809978232143,121.74580848211417,124.95999344875864
150,23.737228199297654,2.9394822036477537,121.48800018530083,124.68270835206857
151,23.683366534614876,2.923852188044113,121.46826881419642,124.65955413586985
152,24.67919059587601,3.189511752454362,121.82601832724346,125.03724206742531
153,24.905508596804644,3.2382486331884763,121.90530838494483,125.10310190889345
154,25.149817923830653,3.287607333466489,121.99009699188585,125.16879940530904
155,25.384215618986357,3.315964091052207,122.07067504869534,125.20609818879949
156,25.59458281015082,3.3369609229471235,122.14236118622645,125.23351120934745
157,25.7967156090005,3.352723194178416,122.2106884046776,125.2539769890949
158,25.967429693759442,3.3771521322064215,122.26797937575577,125.28550624949773
159,26.124699767761115,3.406032446694321,122.32042624904221,125.32248780841256
160,26.260766861425726,3.437545286087182,122.36554816902705,125.3624842825453
161,26.38382633779065,3.4655992644683504,122.4061556811196,125.3977834277147
162,26.507070828172754,3.4912400866097357,122.4466348575673,125.42979715529884
163,26.63579039281375,3.5183635153249964,122.48871185882345,125.4634070849944
164,26.77555797712613,3.5495970543998756,122.53417068435154,125.50179055313409
165,26.92940505781716,3.5852843246789035,122.583935262666,125.54523602330954
166,27.081055531490797,3.6223701563540027,122.63271184131642,125.58992827161953
167,27.23024644719922,3.6562449720651933,122.68043152547293,125.63035286200727
168,27.38898429015718,3.682782586878526,122.73091862492907,125.66176081030862
169,27.523200329390807,3.6931271513021704,122.773378710392,125.6739426030689
170,27.609505245468167,3.692253462709984,122.80057257221245,125.672915064595
171,25.032013389558593,3.0450508732980284,121.94931573554405,124.83594552735084
172,27.68206726143547,3.6962262294387425,122.82337047778324,125.67758544580023
173,25.281453525886395,3.159351353940529,122.03544087776017,124.99597926820744
174,27.705253759774262,3.6904417391520017,122.83064273337226,125.67078353528697
175,25.57014634341274,3.234659078548066,122.13406435859221,125.09828514337771
176,27.653550123344264,3.679164667268207,122.81441795324703,125.65749225853835
177,27.58052506245285,3.65799569499451,122.79145068215031,125.63243190030165
178,27.50495440525787,3.631365827825884,122.76761867391848,125.6007000242518
179,27.423133996264863,3.607283701870135,122.74174180148479,125.57180299599075
180,25.8381411252721,3.2686638382272326,122.22462540624944,125.14370258387059
181,27.338857805748532,3.5814138334390884,122.71500740984747,125.54054506768662
182,27.251226760329175,3.563194444700804,122.68712123787232,125.5183952259138
183,26.011465969575248,3.2823613141654504,122.28269666893551,125.16186385404298
184,27.161031791955836,3.5427383985780616,122.65832536431054,125.49339084523821
185,27.064230559071675,3.5204758896667303,122.62731377737212,125.46601374355012
186,26.19666850390503,3.2959948801165946,122.34432137695771,125.17986528407712
187,26.964436554823155,3.494649386097221,122.59522708193883,125.43403610032625
188,26.85839853424343,3.45975151254682,122.56100236173181,125.39044907866457
189,26.406572572109955,3.3135347924236287,122.41364080331172,125.20291535083527
190,26.751918930111973,3.4219118316605956,122.52649887993533,125.34268815398951
191,26.647956058495343,3.380250846122198,122.49267815768034,125.28948930172434
192,26.625513021783213,3.328300563689864,122.48535977744635,125.22222538549535
193,26.54926750713148,3.341186730583636,122.46045095514604,125.23900747950584
194,26.449312904829206,3.3055131354197504,122.42768797670243,125.19238887296099
195,26.875137338342032,3.36702291039984,122.56641393226836,125.27246071489478
196,26.352903349506583,3.2760111666231064,122.39596947139859,125.1534537342859
197,26.256474639869765,3.2483249494468875,122.36412837766885,125.11659467826748
198,27.145990854402545,3.4201710644721697,122.65351405554732,125.34047828424079
199,26.1883213510193,3.2367863082095036,122.34155331497767,125.10114028340213
200,26.13303319347622,3.224545976565332,122.32319648849119,125.08468573621406
201,27.427486114011973,3.494559410010941,122.74312016382405,125.43392428189611
202,26.08221490905148,3.212684035716441,122.30628946743832,125.06868015220859
203,26.048784405607222,3.2055037550875505,122.29514931255605,125.05896289974343
204,27.71204102239384,3.570426359205638,122.83277035127873,125.52720080088159
205,25.971900546383992,3.1777032456857515,122.26947471011613,125.02113337560243
206,27.998358424060857,3.65276709864498,122.92205146479944,125.62621982368542
207,25.92058594974989,3.171012468182094,122.25229638244052,125.01197949643625
208,25.895353599861863,3.1624991633141257,122.24383700003175,125.00030419284869
209,28.276485367601847,3.726705198726271,123.00790864161243,125.71325039217419
210,25.84379903797433,3.1444823087533535,122.22652719265122,124.97549155676934
211,28.533746849289916,3.7861944791270723,123.08657616418571,125.78202917879892
212,28.767218183195435,3.8412722337227234,123.15735743151366,125.84475087017807
213,28.983247067133913,3.8834568850898594,123.2223408663196,125.89218487893667
214,26.387709607134298,3.179887081489305,122.40743400847585,125.02411698362798
215,29.156415668333132,3.918785240595218,123.27408274908788,125.93151463687322
216,26.679047783062842,3.298024825148943,122.50280658415835,125.18253920376003
217,29.258383947934593,3.9291737056991205,123.3044067809636,125.94301229055894
218,26.846916812717335,3.321268642674269,122.55728842887783,125.21304005171542
219,29.38279798366181,3.9201246331795607,123.3412630710172,125.93299874837216
220,27.084722395503004,3.3641997987084142,122.63388785973231,125.26881780496814
221,29.530836179850215,3.91459963010377,123.38491497465277,125.92687350729045
222,27.28109630999081,3.3901022198069257,122.69663646199035,125.30212793432815
223,29.666043218060903,3.9021276397551055,123.42459258828092,125.91301471192452
224,27.531567930286556,3.4340662017864667,122.77601899245195,125.35808663216692
225,29.786939112846575,3.9095341591583237,123.45991764031396,125.92125012086464
226,27.76015123533783,3.4704861269115646,122.84783664261718,125.40390312672164
227,29.918588682300406,3.938360063403121,123.4982221500171,125.95315418861695
228,27.99782161380104,3.5226253650485244,122.92188492934397,125.46866457957398
229,30.01770374938206,3.9555684031135017,123.5269494297325,125.97208899110241
230,30.025083511759707,3.9716778108508928,123.5290845671841,125.98974010557255
231,30.005033594600842,3.9646840888064663,123.52328243376958,125.9820858788211
232,29.961938238719817,3.959551719228715,123.51079817591588,125.97646020045316
233,28.265661994253527,3.6067577401352455,123.00458331238637,125.57116972466454
234,29.90683796307705,3.9509785216599553,123.49481004057209,125.96704668772837
235,29.833490995753458,3.935179412314801,123.47348160148657,125.94964537457997
236,28.550202476792986,3.6800784817137693,123.0915839385273,125.65857080578893
237,29.75118761421391,3.926217940782673,123.44948622011607,125.93974403224321
238,29.659490206663715,3.90037195033998,123.422673727017,125.911060245336
239,29.559838115974,3.869945584641725,123.3934411131574,125.8770485844114
240,28.84885640878555,3.7743141593057943,123.18197212792609,125.76838046325605
241,29.455003951972497,3.823907042100568,123.3625817935449,125.82507326178991
242,29.343225003788113,3.7688930922016546,123.32955696287728,125.7621381849885
243,29.15869026264665,3.8462688819343835,123.27476033939226,125.85039641280159
244,29.231249865677515,3.70727692436042,123.29634779185884,125.6905502795827
245,29.11612322270437,3.6443144274809876,123.26207106061801,125.6161584037256
246,29.45824863955102,3.9018940045910986,123.36353855614098,125.91275467558131
247,29.005358445416665,3.58797816000414,123.22896482284071,125.54849790832881
248,28.891056924636846,3.5456504906883795,123.19466868624974,125.49695923186376
249,29.74623027972012,3.9290842604557334,123.4480388006503,125.94291342494316
250,28.78218951444015,3.5211723691167136,123.16187665557044,125.46687285258754
251,27.762144436304617,3.26490611518188,122.84846027402227,125.13870697327883
252,30.01412898942509,3.9492518363027056,123.52591497953868,125.96514828755369
253,28.662999953517247,3.5038954285245043,123.12583294617116,125.44551136453677
254,28.032445465735826,3.3828731786265243,122.93261980571367,125.29285716719377
