nodenumber,sound-pressure,sound-intensity,rms_spldb,rms_sildb
1,14.952831826403202,1.14098636294006,117.47386906383124,120.57280453765038
2,15.513536742627888,1.2079934763625717,117.79361645912182,120.82064588931316
3,15.698480733250179,1.1906853333727578,117.89655257300385,120.75797004105948
4,15.884808374587076,1.2225725085904944,117.99903968891805,120.87274625789043
5,15.968243681526218,1.2268500588871287,118.04454311660666,120.88791488092085
6,16.024969688351753,1.2311583193806128,118.07534442096616,120.9031390411922
7,16.00314232519551,1.2246190201134368,118.0635054404645,120.88001000376673
8,16.251885550823154,1.247180334393596,118.1974751921719,120.95929254256092
9,16.472023602771444,1.2344271708266847,118.3143392049447,120.91465472363446
10,15.922992024207394,1.1051156511809141,118.0198936380587,120.43407729642375
11,15.168147016840134,0.9993461788758288,117.59805067475023,119.99715956226589
12,14.732645385983105,0.9403889886091296,117.34501479734483,119.73307535154846
13,14.4329918233209,0.8835661022808311,117.16652739837558,119.46239045955876
14,14.16815044688951,0.8356846809020962,117.00566328343108,119.22042441103795
15,13.95077601758647,0.8054092331671772,116.8713674084927,119.0601660402802
16,13.85142153290886,0.7952118226366552,116.80928700919601,119.00482828214827
17,13.704571442141036,0.7844633339556644,116.7167092706249,118.94572649346964
18,13.645029371781085,0.7834374729981911,116.67888958378073,118.9400434067
19,13.484142118899964,0.7720066477992665,116.57586651090874,118.87621040089762
20,13.362359668872571,0.7857971374593455,116.49706323256606,118.95310442409263
21,13.587867259912533,0.8413521677044579,116.64242599850311,119.24977818006033
22,14.149009171553322,0.952120880691057,116.9939206487414,119.7869208964961
23,14.918529876290428,1.1028229186170622,117.45392065391435,120.42505782937452
24,16.113327161232107,1.3316840954003815,118.12310458668898,121.24401212900321
25,17.430178869062807,1.5940621607996577,118.80543696425974,122.02505252797808
26,18.94134844472834,1.8228414213925443,119.52761795520675,122.60748888726422
27,20.384074674790458,1.9718800493087363,120.16522011967444,122.94880493004919
28,20.669560393367384,1.9194374798652565,120.28602488703102,122.83173970794803
29,20.799770851842776,1.941897440333109,120.34057109527522,122.88226289282812
30,21.118475932818104,1.978300882884189,120.47265154780986,122.9629234481362
31,21.328153999090894,2.01454939576859,120.55846544446446,123.04177920543819
32,21.215477167086725,1.9922873770071436,120.51245616932195,122.99351983307898
33,20.782614295927495,1.8735138380652891,120.3334036391913,122.72656905208413
34,20.697242560621167,1.860309581448037,120.29764987462639,122.69585222888253
35,20.430925533860368,1.8353128653835644,120.18516090458112,122.63710108984648
36,20.20970617550796,1.8066722948787532,120.09060007569727,122.56879384751001
37,19.71224586398976,1.6947278178302525,119.87412223316447,122.29099958169641
38,18.83540577815103,1.5385750326139738,119.47889970287228,121.8711868060013
39,18.254660355926994,1.4488626562425748,119.2068752252932,121.61027218830037
40,17.661196983394124,1.3494750302108038,118.91980277559041,121.30164853070386
41,16.972082324497407,1.2259729648550584,118.57410268034448,120.8848089322993
42,16.175565724320478,1.0982514110916843,118.15658965919722,120.4070176994231
43,15.402873137280816,0.961792805805958,117.73143485576529,119.83081524234504
44,14.498951225328335,0.8157566580924392,117.20613186448799,119.11560627125566
45,13.758726210838072,0.7223206152884982,116.75096465829878,118.58730009956892
46,13.133267870072752,0.6918068350619986,116.3468561338076,118.39984848535593
47,13.027036478706737,0.7401140618041987,116.27631267214923,118.6929865566995
48,15.802706122728903,1.1726438260848888,117.95402936192909,120.69166121360931
49,13.732301784844244,0.9655683720878714,116.73426686739384,119.84783031682632
50,17.570449443324204,1.4101850017859154,118.8750575001882,121.49276091367648
51,18.180743746717692,1.4969072868062565,119.1716329983101,121.75194902497128
52,18.121685445671922,1.4194490925029934,119.14337184063797,121.52119821489215
53,16.957552022386015,1.209388745441975,118.56666324807874,120.82565922749177
54,15.755122582922596,1.0753223748771488,117.92783581785346,120.31538682523019
55,14.959927226016417,0.9589869319197757,117.47798970405879,119.81812689095796
56,14.601466815670209,0.9361363958613128,117.26732980234542,119.713391304201
57,14.697720999621687,0.9494812178222443,117.32440006873217,119.7748637815483
58,15.159479820425368,1.017785589871808,117.59308607175089,120.07656297703065
59,15.841048811100661,1.1025710037083316,117.97507873001527,120.42406566870753
60,16.61428776280057,1.2121492836824947,118.38903465196043,120.83556109176047
61,17.3420790929135,1.3023148080233105,118.76142333874239,121.14715978749446
62,17.820863416469624,1.3581018008373114,118.99797492015885,121.32932325087964
63,18.20213038907811,1.406114216953004,119.1818445080426,121.4802059933085
64,18.77840780361156,1.477017105083882,119.45257541143542,121.69385524831603
65,19.720603783853537,1.6301614597295961,119.87780423795365,122.12230621334584
66,20.92271479357194,1.8382474547368968,120.39176078754056,122.64403973313989
67,22.091528739388078,2.014800454948462,120.86391549071146,123.04232040250784
68,23.180141257872727,2.233245577860272,121.28172165052966,123.48936482697658
69,24.123648954097163,2.4376548654752863,121.62826008706963,123.86972216200263
70,25.21361582219552,2.7300702456264365,122.01210271149323,124.36173821727735
71,26.549683075532656,3.059296389348139,122.46058691192977,124.85621554141554
72,27.781993103557912,3.382278741182329,122.8546680701354,125.29209395919615
73,28.66024332537365,3.658348888607163,123.12499755143503,125.63285120815515
74,29.01825332889735,3.747842860686054,123.23282544210338,125.73781373526414
75,28.578522635612842,3.6263529448235565,123.10019557107145,125.59470070727428
76,27.317925705209042,3.249984964377692,122.7083544781384,125.1188135177798
77,25.315018235678593,2.7298248366372913,122.04696497806222,124.36134780768795
78,22.68243718040163,2.124243569043058,121.09319442194328,123.27204312139489
79,19.772256971846527,1.5577144381988335,119.9005250101441,121.92487845325417
80,17.062760542573777,1.1233444606478815,118.6203860060222,120.50512948087021
81,15.299941198902774,0.901366401841442,117.67319532131924,119.54901365841894
82,14.517873848420678,0.815849641643092,117.2174604532446,119.1161012710973
83,14.339906046644428,0.7985166304758343,117.11032620462859,119.02283965494759
84,14.486287722266404,0.8266975756336586,117.19854222224114,119.17346664021302
85,14.77046102788552,0.867260853586388,117.36728110838511,119.38149743651812
86,15.148205420122963,0.9237417929379376,117.58662380315454,119.65550592893977
87,15.54450621232292,0.9930857034443181,117.8109387022178,119.96986729791286
88,15.86433994520847,1.0594368130089458,117.98784023616503,120.25075059602861
89,16.17516167917226,1.1278658915914053,118.15637269396348,120.5225746311865
90,16.512707649327528,1.1848756498655544,118.3357659259882,120.73672774471908
91,16.884773841737996,1.2670303127095617,118.5293050462698,121.02787005163643
92,17.195674092178795,1.313449530324339,118.68778419441756,121.18413389552424
93,17.602712162620445,1.384273802002699,118.89099183676913,121.41221999758152
94,18.232097089989352,1.4879070084929007,119.19613258459233,121.72575789435406
95,18.87351521143243,1.5466325410024497,119.49645599648447,121.89387143453001
96,19.64545082063913,1.6669426277483528,119.8446400743594,122.21920652688783
97,20.693305792287624,1.807485188443469,120.29599759715052,122.57074747126389
98,22.08806039052732,1.910530980640782,120.86255170729537,122.8115408448046
99,22.894142348140722,1.9696955397402784,121.17388766251706,122.94399101476608
100,25.55275626548855,2.8958018297466293,122.12815513608079,124.61768838190753
101,26.436956612461934,2.9309052489882874,122.42362925239573,124.67001778688628
102,26.37919863838597,2.9602227856739796,122.40463205026529,124.71324397189987
103,25.964219059995898,2.9259864215868086,122.26690537902186,124.66272306395032
104,25.013213255261,2.7442865512925936,121.94278980249031,124.38429457307193
105,23.27321880873319,2.3516274458776385,121.3165291398185,123.71368520203747
106,21.396855809773648,1.913577131515602,120.5863992875468,122.81845972239374
107,20.23974702238594,1.6524105064142338,120.10350168538346,122.1811794765968
108,19.688693481958904,1.4390446506785077,119.86373804340678,121.58074269435177
109,19.743581281841678,1.3931784184969989,119.88791872702288,121.44006738252276
110,20.215101123841333,1.4171823573522495,120.09291845043967,121.5142573711848
111,20.399845407098727,1.4138992857632058,120.17193761259291,121.50418475093785
112,19.975322541572464,1.2840640147479319,119.98927609865041,121.08586675258367
113,19.582851726214603,1.239193287620357,119.81691879906366,120.93139052300104
114,19.740712339992324,1.252543908288007,119.88665648778598,120.97792959124475
115,20.60283426231784,1.5445301154753073,120.25793946479794,121.88796380657693
116,21.878851845481556,1.8732098999455546,120.7798906353274,122.72586444369686
117,23.468906350568794,2.2659225106609675,121.38925712625965,123.55245053908767
118,25.45251611934835,2.785109261902952,122.09401450994845,124.44842237538738
119,27.541240261725857,3.2911285459589594,122.77906996468475,125.1734484543943
120,29.869139488639085,3.929785323369491,123.4838543073206,125.94368826349336
121,32.26279725799266,4.537961717768035,124.15344046683983,126.56860827857373
122,28.486369402748387,2.467821699186419,123.07214212252663,123.92313778595911
123,34.81922358810713,5.327968758681563,124.81578174333448,127.26561669620956
124,31.877042394154557,4.0925777571268,124.04896048707124,126.11996939561143
125,37.67587247519832,6.2710828536577035,125.50066645139174,127.9734253871964
126,40.25340880077172,7.0845224688057264,126.07545336374449,128.50310582014396
127,33.78537789980683,4.721766798151631,124.55397570682138,126.74104534039431
128,42.055944134531536,7.67037645017573,126.45594782893993,128.84816678971413
129,42.911452583545675,7.965357974034379,126.63086440596432,129.01205298361168
130,42.505868784194796,7.728778626586838,126.54837803108103,128.881108680912
131,34.53980905953378,5.169109454184576,124.74579873477705,127.13415728307197
132,40.26133520929046,6.765890051107185,126.07716355759007,128.30324936019886
133,36.12084782156344,5.2455238489057034,125.13455879546635,127.19788865900165
134,35.26694341936793,5.638640932802635,124.92675650795475,127.51174439708501
135,30.698812749120734,3.5049531318444234,123.7218316832505,125.44682214965322
136,25.07890767040398,2.111456446158875,121.96557241805417,123.24582127490527
137,35.46116216171185,5.669624706100782,124.9744593776404,127.5355431225026
138,21.174471459115,1.4738998713239868,120.49565165897869,121.68467980939235
139,19.455535100469458,1.285881869690878,119.76026368747016,121.09201073022207
140,34.13405383090461,5.216760184596631,124.64315746778958,127.17400872585854
141,19.42423075814238,1.311852291197257,119.74627666283679,121.17884938142325
142,20.29500040275172,1.4663101447748492,120.12718137215685,121.66225839280872
143,31.834955300479685,4.437186059137773,124.03748497485225,126.47107639841792
144,20.955396831813307,1.6238559838312807,120.40531787614478,122.10547510003182
145,29.71613592390297,3.692139662859546,123.43924681027508,125.6727812075637
146,20.98493941683423,1.6435228194442713,120.41755448169002,122.1577573840847
147,21.159958470329897,1.7235022882110782,120.48969630660692,122.3641186433624
148,27.954692341719536,3.0945290754742416,122.90849442567645,124.90594567577774
149,21.57133091219242,1.7914282156311305,120.65693890902132,122.53199410224767
150,26.49264578666659,2.658871444498913,122.44190674467751,124.2469733985341
151,21.855419518818163,1.8164124796467622,120.77058303209141,122.5921447705579
152,22.144084350014634,1.8539839763748716,120.88455462812445,122.68105976301442
153,25.58680824803777,2.3246403205729775,122.13972237600181,123.66355766312289
154,22.42431742227971,1.8774634592415222,120.99378473375285,122.73571493157323
155,25.05402841429098,2.1259441967061896,121.95695139931912,123.2755186066675
156,22.828605244244116,1.9306955739744684,121.14898765228307,122.85713800985113
157,23.210974307329977,1.9617660952240725,121.29326750369408,122.92647224445955
158,24.804104191598668,2.076445571892929,121.8698710260607,123.17320551802095
159,23.592674149371213,2.0330210199470655,121.43494347628022,123.08141868947841
160,24.54897147249595,1.9997658136580851,121.78006611107185,123.0097913976847
161,24.46468041213782,2.2286648768328674,121.75019102356566,123.48044768756486
162,26.67915293798959,2.5596413650627623,122.50284081934907,124.0817911996609
163,24.57219735252945,2.0623699143186607,121.78827998100112,123.14366564603638
164,28.407587908566658,2.7216520410159415,123.04808727263827,124.34832600541708
165,24.806536852086076,2.152493921265261,121.87072285220496,123.32941933661263
166,35.11008992684936,5.557722858437675,124.88803892307067,127.44896886440608
167,24.41575478775132,1.8917090033594937,121.73280317854862,122.7685433082109
168,40.438958210879,7.758866936029083,126.1153992619471,128.89798303815007
169,24.294742567800125,1.985163544101309,121.6896461176758,122.97796291136906
170,42.96834418091717,8.841014519473854,126.64237244922957,129.46502103805895
171,24.8658499303763,2.051034831578383,121.89146625232533,123.11973035811485
172,43.01367102621978,8.345507424446987,126.6515302716291,129.2145274783823
173,25.811489983775868,2.2735488258325742,122.21566159027094,123.56704285377268
174,43.65086326098123,8.194947601167211,126.77925682568427,129.13546181018575
175,27.784466289253036,2.758157527051048,122.85544126382999,124.40619066471933
176,44.73290851873327,8.779963590120852,126.9919428221702,129.43492714921777
177,30.81026051064887,3.467105910493364,123.75330749535648,125.39967108353919
178,34.15979459348657,4.398295244955537,124.64970509802954,126.43284378947298
179,43.64835435041767,8.053149575544541,126.7787575744683,129.059657655559
180,37.41927354777729,5.312767795973204,125.4413071250648,127.25320834706785
181,40.702173500398615,6.912541997376792,126.17175211104092,128.39637782891214
182,41.35655434120701,6.686656270708828,126.31028704581874,128.25208998753774
183,45.11791774075381,8.033514544120013,127.06638104870486,129.04905584281403
184,48.64360410616201,9.750727778580464,127.71991499154966,129.89037031947333
185,37.21315579047453,5.4423432174136925,125.39333010863687,127.35785926772783
186,52.135737819879814,11.397692868286848,128.32211056699228,130.56816949935111
187,54.78697557892567,12.73301115822007,128.75294661900014,131.04931119659793
188,34.34716785376236,4.4146568662120975,124.69721873635422,126.4489695323592
189,55.49862076297715,13.172216513964596,128.8650438924275,131.1965886067085
190,53.516248379628195,12.132222975481895,128.54911330107356,130.83940383515605
191,32.564077382371366,3.7711503501286203,124.2341756485323,125.76473847422741
192,48.508081356181016,9.641666988425742,127.6956820323845,129.84152127397283
193,30.107173655776894,2.783311823443363,123.55279983775064,124.4456186447797
194,41.501339441772124,6.753237347466204,126.34064235965286,128.29512013585645
195,31.302512022312342,3.534823927320327,123.89098390707613,125.48367786082673
196,33.974415879623365,4.770597296334339,124.60244006004304,126.78572757711459
197,34.147492669959725,4.193148936956949,124.64657649622069,126.22540288435003
198,30.278913587662824,3.278371714846471,123.60220585774108,125.15658194064962
199,28.7235370051755,2.8673094897963676,123.14415844105655,124.57474572073303
200,39.89060409209953,6.799972006072568,125.99681235058519,128.32507124818994
201,26.59142174678904,2.5975681480378627,122.47423124875469,124.14566950234433
202,29.209874813577848,2.9569678441827416,123.2899940006598,124.70846601776734
203,26.22014392567876,2.532571864238698,122.35210151187685,124.03561777743867
204,44.94671047848146,8.814944217474075,127.03335833588255,129.45219568351752
205,25.935298039162006,2.398715974944994,122.25722494902074,123.7997882745236
206,28.745281630942788,2.9194737935277573,123.1507314464926,124.65304581187796
207,26.25326689036892,2.3645745606509663,122.36306715903117,123.73753012903676
208,47.290561308550885,8.91037147303451,127.47488946356498,129.49895810134083
209,29.246469049538806,2.9973765137104973,123.30086890372289,124.76741300021487
210,27.480321126998867,2.584296089368174,122.7598361558307,124.12342270395811
211,49.73827087866005,9.978658109671015,127.91321375087139,129.99072143016016
212,28.220824555745114,2.7010493399167275,122.9907940630236,124.3153251749284
213,29.942368648641917,3.1762507225184686,123.50512314804034,125.01914776849688
214,28.291386740954753,2.659670350339528,123.01248479703665,124.24827811856501
215,53.59508746698097,11.773348717267993,128.56189976723354,130.70900007667768
216,29.962303555841345,3.163475993639474,123.51090407977401,125.00164543119661
217,28.230197467802856,2.5587145582434307,122.9936784069221,124.08021840129416
218,55.32232532394161,12.491081044047567,128.83740861095842,130.9660002613617
219,28.52860770371575,2.636788459592432,123.08501162827542,124.21075289248554
220,29.491255683250213,2.925741878233963,123.37326537478361,124.66236008117549
221,29.172871195721253,2.7812380121763294,123.27898357700147,124.44238156412418
222,29.163332003841862,2.761748461135156,123.27614292697302,124.41184120688777
223,53.20951275351381,11.510155270219556,128.4991857277485,130.61081182234892
224,29.678731089880223,2.9204467159475174,123.42830666276612,124.65449286870502
225,29.22112887722175,2.6293318453735464,123.29333988040942,124.19845401442863
226,29.650456101619042,2.956455365806191,123.4200276534699,124.70771326754573
227,30.51847665006415,3.0881102843423376,123.67065712127464,124.89692801711
228,48.900714366351984,9.20189816525303,127.76570415798567,129.63877422743883
229,29.484642858862063,3.0154102394270295,123.3713175193209,124.79346405232198
230,29.219594455034372,2.4499946125649292,123.292883766213,123.89165129370289
231,32.26206035460371,3.740494516392762,124.15324207317425,125.7292902239922
232,44.388983723783696,7.804952322449633,126.9249041279327,128.92370254463103
233,29.966657819523252,2.7508041180164584,123.51216626263165,124.39459665819209
234,41.51449814242362,7.18615492323523,126.34339593116218,128.56496575738225
235,34.60221633794197,4.48743739073752,124.76147842818932,126.5199840230016
236,31.707195902833995,3.3191479470659857,124.00255680504586,125.21026610999252
237,35.395350806996376,4.67106644604348,124.95832450719828,126.6941604518219
238,39.69736039414205,6.720344096041341,125.95463268829478,128.27391510432716
239,40.25137651885395,6.357160393537605,126.07501482642313,128.03263168981118
240,38.69066412395023,5.82565739904859,125.7315237754288,127.65344940628468
241,45.10589249043799,8.367690210112293,127.06406569541919,129.2260559330508
242,49.63494458252798,9.961670815238204,127.89515091323082,129.98332186313485
243,37.75073895406558,5.839946406078627,125.51790923014747,127.66408861555702
244,43.57191340329563,7.58745768306979,126.7635327232353,128.80096281933658
245,54.39097539496619,12.357739715043062,128.68993702873559,130.9193904364511
246,59.22072595882677,15.244158717437303,129.42887462464518,131.83103461862683
247,35.45166576118844,5.107770839177241,124.97213300906043,127.08231404348362
248,48.76244479595333,10.06256217653261,127.74110951981245,130.0270857688813
249,63.3525838309196,17.77286603325945,130.0146867317653,132.4975746731371
250,65.8898952522773,19.671262520094057,130.35577642938637,132.9383223424137
251,33.74099576301907,4.564165451234701,124.54255799321885,126.5936137922906
252,54.4474375901933,12.554474023462532,128.69894900211904,130.98798522425855
253,65.22184231356887,19.11377167038606,130.26726132886876,132.81346393701423
254,32.967198103146295,4.259774566539564,124.34104084332247,126.29386616215751
255,60.5869436302063,15.669668249899754,129.6269809791941,131.9505980190809
