nodenumber,sound-pressure,sound-intensity,rms_spldb,rms_sildb
1,21.23501661851479,2.6505537090487756,120.52045219083047,124.23336608904714
2,21.244984782579163,2.649019056257425,120.52452857367842,124.23085082494165
3,21.13827742251202,2.628630461344293,120.48079195392643,124.19729536323399
4,21.03238928532505,2.607993774114317,120.43717231599722,124.16306550299521
5,20.9194829576904,2.583003418545228,120.39041901433745,124.1212498095239
6,20.803950092563763,2.559176619732025,120.34231615186975,124.08100259442513
7,20.688446161305176,2.5358476347429333,120.29395755695904,124.04123155606273
8,20.567917850563436,2.511115468753804,120.24320666754731,123.99866683357935
9,20.45375558492038,2.488419711836769,120.19486132630989,123.95923632916585
10,20.33559811142384,2.4642054876703616,120.14453909502245,123.91676920391872
11,20.232067679298176,2.4437055737786793,120.10020546909836,123.88048879399521
12,20.13163060506571,2.423484840414538,120.05697914544909,123.84440307432037
13,20.049822196581996,2.4071233299126678,120.02161059902575,123.8149834209405
14,19.977462210903564,2.3930307274949727,119.99020644339632,123.7894827516832
15,19.93073234412213,2.3839848180477863,119.96986522497266,123.77303485355503
16,19.904709539298427,2.3803425925700514,119.95851697666725,123.76639467709927
17,19.90377882357154,2.3814351574241592,119.95811082740502,123.76838760881722
18,19.930377926914286,2.3907740587679496,119.9697107672201,123.78538534849844
19,19.971705362875326,2.40292603094988,119.98770309476507,123.80740402162729
20,20.04255904502139,2.4229561557148336,120.0184635206225,123.84345555489801
21,20.118505341810597,2.442847078242295,120.05131434012789,123.87896281073226
22,20.21064799863049,2.4661839326046264,120.09100485056226,123.92025463961386
23,20.293490823329456,2.489157281541481,120.12653527569591,123.9605233909453
24,20.38040145578542,2.5127319954614844,120.16365477759187,124.00146169810589
25,20.45231820675628,2.534266918060331,120.19425090800526,124.03852354405315
26,20.525500289069115,2.5560588170965373,120.22527511522632,124.07570843088308
27,20.59939931662922,2.5806544794595827,120.2564912151939,124.11729861301268
28,20.68220053746785,2.6087488080619754,120.29133498254396,124.1643226364429
29,20.764639748980034,2.6351931297092914,120.32588810323547,124.20812449565041
30,20.886098559829506,2.6760357089985836,120.3765465481946,124.27491904356461
31,21.013275612154978,2.7193217897745314,120.42927522279751,124.34460602679212
32,21.155544560328856,2.770278773001948,120.48788426456395,124.42523474293559
33,21.299908546237397,2.8186987441199194,120.54695486164563,124.50048661980964
34,21.447298796589074,2.867561176562959,120.60685213218646,124.57512691912557
35,21.556889491387913,2.9015728226895576,120.6511219942106,124.62633474812785
36,21.645162252771055,2.9205701559217174,120.68661699963138,124.65467643023487
37,21.689492004963554,2.9249231351676364,120.70438769498512,124.66114457628055
38,21.707054802798996,2.915640339681841,120.71141814064424,124.64733950330056
39,21.71659711184827,2.905885533226687,120.71523557381597,124.63278502850125
40,21.693867493812736,2.879914157420488,120.70613974986628,124.5937954278902
41,21.72864462240287,2.8615777117596304,120.72005282632033,124.5660554452367
42,21.733322632077588,2.8402642407618686,120.72192263012738,124.53358746021124
43,21.758109496793733,2.8226501282770053,120.73182324660146,124.5065705002955
44,21.770313797759208,2.810835189338367,120.7366938670398,124.48835381907949
45,21.78134123719916,2.7954496972973817,120.74109246562054,124.46451681755583
46,21.7493864784231,2.7905938089131297,120.72834029847057,124.45696626389875
47,21.708268220736944,2.7970344650570724,120.71190366573367,124.46697817780853
48,21.61479644325916,2.7732666858541406,120.67442308537628,124.42991634679146
49,21.30192483418833,2.664545478988514,120.54777704478865,124.25623137264188
50,21.346072457488532,2.5768660282528972,120.56575967211408,124.1109184008643
51,21.679910170292214,2.706591162077013,120.70054965453885,124.32422659367317
52,21.896447651005815,2.7413469956033527,120.78687335091658,124.37964011365037
53,22.076052165971408,2.7783884270896255,120.85782831946871,124.43792961325747
54,22.19519608374173,2.7936704724815424,120.90457980988938,124.46175177575243
55,22.323826285141408,2.8176707715184826,120.95477277384573,124.49890246947291
56,22.443479794,2.841832819800959,121.00120396386498,124.53598525536029
57,22.51829242847692,2.8623008443632036,121.03010918063805,124.56715278683126
58,22.574465249233686,2.8872656103922694,121.05174951488515,124.60486738096742
59,22.603659500968227,2.9074682890759918,121.0629752169403,124.63514986700773
60,22.620427503624402,2.923356000526034,121.06941625475194,124.6588170610312
61,22.64159907890973,2.935046897659606,121.07754200579265,124.67615045015339
62,22.675364805475684,2.9475795797833673,121.09048574269102,124.69465539159573
63,22.699595357910866,2.9457927059821145,121.09976239763768,124.69202182487741
64,22.685238316898918,2.926791884371299,121.09426700775424,124.66391842118617
65,22.646578621073342,2.8989149234903997,121.07945207398494,124.62235469994242
66,22.593730189730188,2.869121412587913,121.05915885039465,124.57748926670985
67,22.505276865150222,2.8388537804458522,121.02508728870208,124.53143024093002
68,22.402828884547944,2.81891946744685,120.9854573207054,124.50082668868043
69,22.33465238925826,2.81429435433816,120.95898403899413,124.49369519459488
70,22.24157324632,2.811500837485815,120.92271015861695,124.48938217212455
71,22.12049122268264,2.8062734017476068,120.87529542629196,124.48129979980352
72,21.99597236240837,2.7881362499203726,120.826263393241,124.45313992934844
73,21.874523678165655,2.7655905561737297,120.77817218579916,124.41787883525731
74,21.74254590497974,2.7379315434216656,120.72560800016953,124.3742258525674
75,21.603800972713298,2.701410723254764,120.67000343960103,124.31590619464151
76,21.473008764715924,2.66827469349157,120.61725811411654,124.26230537285987
77,21.348261821503538,2.6320123980130647,120.56665049636746,124.20287930677473
78,21.230178986022608,2.600917523205414,120.51847319878674,124.15126580652354
79,21.119425581384224,2.570926922112832,120.47304212320996,124.10089732117694
80,21.019730937957497,2.546366307935802,120.43194313796901,124.05920879314499
81,20.93566853310957,2.5262809510107895,120.39713675988702,124.02481647362887
82,20.863097259650505,2.507850998313472,120.36697573988658,123.99301729713473
83,20.795368718475736,2.4928489250317702,120.33873258985676,123.96695959605603
84,20.738624321808704,2.477232571830195,120.31499897612937,123.93966781685153
85,20.69287808261135,2.4645655544351928,120.29581806675183,123.91740374347441
86,20.664465273496344,2.4528608633386426,120.28388352052231,123.89672913881867
87,20.656828999216955,2.4455047713789897,120.28067317401408,123.88368514502034
88,20.667028688807598,2.440016877446466,120.28496093342874,123.87392830337303
89,20.69698325534158,2.4375684416946592,120.29754105282834,123.86956818599509
90,20.74565907977189,2.438741103300367,120.3179448210072,123.87165698068549
91,20.811046402280837,2.4425137521620517,120.34527843800836,123.87837017619586
92,20.89145213604901,2.449883176273408,120.37877265152959,123.89145375340256
93,20.987431101958535,2.459289969411774,120.41858575544275,123.90809738454445
94,21.097611748481317,2.472620013654619,120.46406600484525,123.93157380149107
95,21.216006774718267,2.4884218399103313,120.51267299480209,123.95924004321058
96,21.331714960848117,2.5018205303080623,120.5599155249103,123.98256152083043
97,21.474451202002584,2.5228586879355017,120.6178415642715,124.01892925203035
98,21.67013548171922,2.5473540327571214,120.69663261748141,124.06089307660079
99,22.401713240671093,2.5646325416492535,120.98502475922247,124.09025148564356
100,22.981638860148063,2.7080952580994992,121.20702000156408,124.32663936726311
101,23.42159929018197,2.7911001350638736,121.37173101774712,124.45775417758992
102,23.83627477180327,2.8650181883862205,121.524167748634,124.57127383403127
103,24.17684256467038,2.9342630723245735,121.64739173576129,124.67499048067984
104,24.515704328108406,3.007604476810306,121.76828758469668,124.78220722600115
105,24.944512207435345,3.129335834460103,121.918900400398,124.95452173317604
106,25.39579399659701,3.250132534661606,122.07463599760487,125.1190107110152
107,25.568197487251524,3.28771675515781,122.13340232895743,125.16894394947478
108,25.69602201145634,3.3239914366743255,122.1767179991108,125.2165989627637
109,25.797432769643397,3.3535787601561458,122.21092987307637,125.25508510378339
110,25.761789392270618,3.355336451029398,122.19892059603433,125.25736074877392
111,25.701490632012572,3.3542683795342776,122.17856633115491,125.25597808147162
112,25.672482599807953,3.336841991866392,122.16875745022655,125.23335642170161
113,25.682315539562744,3.3175344352804887,122.17208363721068,125.20815439441427
114,25.69952949706877,3.299992584110746,122.17790353490484,125.18512963913221
115,25.787886947229403,3.3149981723077255,122.20771523909158,125.20483293296783
116,25.857747449504302,3.3491296214502246,122.2312138751335,125.24931956375694
117,25.904078652075576,3.388645046593193,122.24676308775267,125.3002607979067
118,25.90004267618104,3.436021295622956,122.24540968032585,125.36055846818948
119,25.795463468561348,3.4612850031334923,122.21026679218275,125.39237360690319
120,25.62515260641253,3.4560634870313756,122.15272929554821,125.38581711762339
121,25.414391157897217,3.399508375974824,122.08099428570625,125.31416115560185
122,25.180591483116572,3.3382955827867677,122.00071863300448,125.2352478779258
123,24.928785825146477,3.2658698587717727,121.91342261445308,125.13998874600468
124,24.657669370809415,3.191128870682716,121.81844058525556,125.03944343114307
125,24.40821396264518,3.1240062638844575,121.73012012033566,124.9471189600159
126,24.186987073792256,3.062262873831225,121.65103553686703,124.86042469103614
127,23.97606024062379,3.0095307855871294,121.57495650907711,124.78498790240052
128,23.776510736767204,2.9570386175445686,121.50236250956937,124.70856996246441
129,23.59461502763391,2.9136345150856786,121.43565800151336,124.64435073159271
130,23.41951323927687,2.8662975399510415,121.37095737224749,124.57321270936318
131,23.251368049763446,2.8236719108605426,121.30837030133375,124.50814233604805
132,23.09179014255378,2.777583884337604,121.24855212652523,124.43667183708251
133,22.947444815150543,2.7311860319111645,121.19408676918778,124.36351282666595
134,24.025748737294364,2.64764266168203,121.59293870440277,124.22859370294933
135,22.821621795244344,2.685977254419559,121.1463301641735,124.29102330625362
136,22.71639985768932,2.6407171353505388,121.1061901787076,124.21721883548612
137,22.627870852072707,2.599423115218515,121.07227391376199,124.14876976557002
138,24.696286771412872,2.7959724556769396,121.83203327667984,124.4653288867363
139,22.5689034177424,2.563201545353041,121.04960924683738,124.08782756240169
140,22.554012664774532,2.537378353221977,121.0438764860661,124.04385230511096
141,25.21475431233093,2.897282515965438,122.012494903414,124.6199084561543
142,22.583848291837548,2.520282049100302,121.05535904178323,124.0144914614403
143,22.646397857456158,2.510944690716747,121.0793827434639,123.99837146491869
144,25.682615285645944,2.986743665248037,122.17218501226779,124.75197951246466
145,22.738830467754372,2.5091059124839283,121.11476256159773,123.99518993812228
146,22.869780154906763,2.515565472365675,121.16463988259844,124.00635625146998
147,26.07136895057429,3.108347348089627,122.30267679913295,124.9252954389005
148,23.048536959705686,2.5362171922204464,121.2322673489193,124.04186442168645
149,23.24981333132198,2.5579936288474903,121.30778949403359,124.07899458453885
150,26.41035062807179,3.1928341941184146,122.41488342689519,125.0417636594028
151,23.42956765732767,2.5693394886000753,121.37468558058087,124.09821491687408
152,23.720956785533307,2.611778875476191,121.48204413326069,124.1693640490561
153,26.737784377384084,3.3109348480176677,122.52190842007693,125.19950634867199
154,24.074062186480393,2.6653893119439354,121.6103876473708,124.25760651891898
155,27.19199980833116,3.4241686163402125,122.66822305699603,125.34555142495499
156,27.624649502728165,3.510558676993777,122.80533561606119,125.45376236416882
157,28.0308456501218,3.5674901536103705,122.93212408662221,125.5236278312135
158,28.398189476118798,3.6106437243203344,123.04521313724163,125.57584637085014
159,28.71081928072067,3.6647109793819452,123.14031179733976,125.64039729315736
160,28.937665260875335,3.7075409698648074,123.20866985857869,125.69085958861012
161,29.05151321420262,3.721925614690353,123.2427752573661,125.70767689199818
162,29.085583216508443,3.741967113839164,123.25295561834187,125.73099966397305
163,29.030603089837353,3.773775117622218,123.23652124831965,125.76776016632923
164,28.999472557491043,3.8628085850129494,123.22720206714482,125.869031879449
165,29.01440574631104,3.9406154163242593,123.23167368796013,125.95564052039364
166,29.13022766390599,4.02411354138532,123.26627766309915,126.04670225949823
167,29.2851531052942,4.100559552961427,123.31235006469527,126.12843123593487
168,25.495669419949532,2.7097338293297804,122.10872847442855,124.3292663326167
169,29.307468746397376,4.0957010392771,123.31896629721982,126.12328248326466
170,26.290608642735734,2.9700742846871844,122.37541289452422,124.72767311615625
171,29.142135149201533,4.010864583140098,123.26982744552055,126.03237999356914
172,26.741111238811097,3.069760623899203,122.52298909875962,124.87104511056047
173,28.908117876061837,3.904134364286268,123.19979642539181,125.9152475588603
174,27.228588411083507,3.1836765228762047,122.67990262988569,125.029289348613
175,28.67357267112907,3.8427303485302273,123.12903625795586,125.84639910289457
176,27.843560799820104,3.3102224171233305,122.87389557964686,125.19857175432556
177,28.39546397080608,3.774217023683875,123.04437947231833,125.76826869193637
178,28.059032930567785,3.7094516556568493,122.94085406193885,125.69309715403963
179,27.72652561025211,3.6371754806574743,122.83730912426995,125.60764254709581
180,27.410123406613803,3.57659002361974,122.73761990345034,125.53469160813206
181,28.375810354692693,3.3722846723973237,123.03836554540203,125.27924228595933
182,27.10836394048271,3.5134638812658583,122.6414662383587,125.45735493308683
183,26.824097334548355,3.442278341265783,122.54990241301557,125.36845984291496
184,28.743968865013105,3.414140268801524,123.15033476224677,125.33281359987582
185,26.550608550984435,3.371363452036519,122.46088968155274,125.2780557444482
186,26.28455302815113,3.2960866499317607,122.37341201051231,125.17998620225495
187,26.028243921839255,3.2244529681694525,122.28829744753598,125.08456046705692
188,29.066227910214028,3.419315252220187,123.24717357794329,125.33939143495617
189,25.782453336338282,3.1449818253294057,122.20588489457761,124.97618140025497
190,25.547036374851018,3.0664978306434962,122.12621061394245,124.86642661787285
191,29.414594940875435,3.478683502004366,123.35065753136213,125.41414917512824
192,25.33336845396369,2.988281594288165,122.05325887953668,124.75421519878037
193,25.130020666956394,2.909887486373687,121.98325700185993,124.63876196892531
194,29.751881190983546,3.554874854753033,123.44968870820276,125.50824316501271
195,24.932505392363463,2.832527782639158,121.91471851953776,124.52174178301615
196,24.75270955184889,2.761084504643403,121.8518550038358,124.41079698685157
197,30.058606792099855,3.6666633783665494,123.5387770325464,125.64271040959134
198,24.61214226931865,2.699430238987938,121.80238842355756,124.31272108538482
199,24.536489924903126,2.6554329301984043,121.77564878080118,124.24135336667382
200,30.484493380340584,3.8530982919209427,123.66097972488734,125.85810087937061
201,24.51476135442469,2.6262639997852806,121.76795348363378,124.19338380507122
202,24.53715868811908,2.6060064295017114,121.7758855189958,124.1597548286301
203,30.925609591937867,4.018012558544323,123.78576546684577,126.04011289828351
204,24.613004209878024,2.5988197189154008,121.80269260632224,124.14776153377177
205,24.729843383223038,2.5989278258487287,121.84382740544054,124.14794218988945
206,31.338584873603626,4.1884330481925325,123.90098771784596,126.22051577667177
207,24.87633616054377,2.6012382385142323,121.89512842507894,124.15180129563781
208,25.144290268658473,2.6290235751839326,121.98818771842612,124.19794480562956
209,31.746511042112893,4.371961176874795,124.01332014799367,126.40676296748866
210,25.578347012472793,2.6930750429235277,122.13684958655693,124.30248455258342
211,26.35252557902903,2.767427301015895,122.39584495774815,124.42076220993458
212,26.05203838570291,2.744785289705966,122.29623427477038,124.38508377513635
213,31.97387904320936,4.502023792845254,124.0753066406601,126.53407785883091
214,27.21388196230041,3.035227439038722,122.67521002158453,124.82191239667821
215,31.958308627733057,4.573432514041011,124.07107581678103,126.60242274982046
216,27.71677840082809,3.0839417004670127,122.83425507878263,124.89106159455187
217,31.809428936948986,4.530239341302634,124.03051753566545,126.5612114723605
218,28.223837616493615,3.184094505277559,122.99172138235377,125.02985949301643
219,31.66118700068474,4.49382950515382,123.9899439436046,126.5261659136404
220,28.981384171214497,3.2870223858780423,123.22178256350551,125.16802661803013
221,31.630067015989493,4.4626411945104705,123.98140232822396,126.49591970078615
222,31.71207199075836,4.42048877962781,124.00389246100869,126.454702925525
223,29.67713896648004,3.3663262727374716,123.42784069341432,125.27156206584064
224,31.753339079865324,4.381091364641386,124.01518810775977,126.41582310184761
225,30.270234573251592,3.4441541613947657,123.59971581571244,125.3708258237066
226,31.728967759396074,4.397011245963632,124.00851895470376,126.43157576389255
227,30.830211852479692,3.5369025425878684,123.758930267301,125.48623093233064
228,31.677289720371324,4.4501254859241595,123.99436042017065,126.48372257514873
229,31.295478597118287,3.6730509437322727,123.88903203754595,125.65026951876027
230,31.49933185700934,4.444787551487609,123.94542692512103,126.4785100773107
231,31.198161236252016,4.412778152150257,123.86198005139576,126.44712094290881
232,31.71458099455091,3.8677749209796968,124.00457964625429,125.87461193068494
233,30.83973714523816,4.32202263655334,123.76161344261322,126.35687037166488
234,30.468800751064087,4.21638593014876,123.65650730215842,126.24940355445273
235,30.101553614916362,4.093606832460109,123.55117831020704,126.12106128826589
236,32.047706147891425,4.113987943048915,124.09533908334,126.14263014564588
237,29.732636977821915,3.9668663693605413,123.44406865368535,125.98447570772406
238,29.37198053960058,3.8526467431467735,123.3380647226035,125.85759189512504
239,32.38370946979275,4.3273655973065175,124.18593197814974,126.3622358810039
240,29.019727978530483,3.7426466744535807,123.23326683043848,125.73178829364485
241,28.68823535355598,3.6389736700829287,123.13347678898226,125.60978913245191
242,27.320376021560115,2.7281529150233275,122.70913353520078,124.35868709199114
243,28.36075785407832,3.527266499253538,123.03375672374402,125.4743827361216
244,32.70022613807751,4.4768879772973476,124.27041520731424,126.50976227407727
245,28.040266957639908,3.4135328128897418,122.93504296710496,125.33204081902346
246,27.942663879390434,2.8960961708634883,122.90475622033071,124.61812979411108
247,27.74464650585713,3.3007381015139385,122.84298400363386,125.18611066414647
248,33.04374497614653,4.615817590186032,124.36118532113244,126.64248637855442
249,27.459191577313778,3.1954682425127334,122.75315502828946,125.04534505761897
250,28.505502036490583,2.95207666183204,123.07797397002406,124.70127631395692
251,27.19275818684796,3.10127787126411,122.66846530104911,124.91540680313499
252,33.4334179838331,4.714010900746388,124.4630156446787,126.73390582458252
253,26.94175508250215,3.017538835460965,122.58791776287728,124.79652868137363
254,26.69850805967599,2.932480013614493,122.50913995105044,124.67235060853545
